Freq(Hz)	SPL(dB)
20	87.514
21	87.556
22	87.561
23	87.417
24	87.247
25	87.14
26	87.097
27	87.139
28	87.202
29	87.23
30	87.217
31	87.12
32	86.995
33	86.897
34	86.789
35	86.721
36	86.696
37	86.677
38	86.638
39	86.57
40	86.517
41	86.413
42	86.322
43	86.239
44	86.192
45	86.126
46	86.063
47	86.008
48	85.951
49	85.863
50	85.799
51	85.794
52	85.754
53	85.725
54	85.678
55	85.643
56	85.607
57	85.546
58	85.504
59	85.469
60	85.425
61	85.378
62	85.329
63	85.259
64	85.177
65	85.093
66	85.048
67	84.98
68	84.927
69	84.88
70	84.851
71	84.813
72	84.778
73	84.748
74	84.734
75	84.731
76	84.716
77	84.722
78	84.732
79	84.74
80	84.759
81	84.757
82	84.774
83	84.824
84	84.856
85	84.873
86	84.902
87	84.942
88	84.969
89	85.015
90	85.063
91	85.123
92	85.166
93	85.223
94	85.28
95	85.336
96	85.374
97	85.433
98	85.484
99	85.517
100	85.6
101	85.649
102	85.675
103	85.704
104	85.754
105	85.809
106	85.849
107	85.877
108	85.911
109	85.956
110	86.001
111	86.026
112	86.07
113	86.092
114	86.11
115	86.149
116	86.182
117	86.219
118	86.24
119	86.28
120	86.308
121	86.335
122	86.354
123	86.387
124	86.41
125	86.417
126	86.446
127	86.472
128	86.482
129	86.501
130	86.525
131	86.533
132	86.562
133	86.58
134	86.598
135	86.618
136	86.631
137	86.641
138	86.655
139	86.664
140	86.674
141	86.677
142	86.682
143	86.701
144	86.703
145	86.708
146	86.723
147	86.725
148	86.729
149	86.743
150	86.747
151	86.746
152	86.753
153	86.753
154	86.752
155	86.76
156	86.76
157	86.762
158	86.768
159	86.767
160	86.763
161	86.762
162	86.755
163	86.756
164	86.756
165	86.754
166	86.762
167	86.758
168	86.75
169	86.753
170	86.754
171	86.748
172	86.75
173	86.759
174	86.756
175	86.75
176	86.757
177	86.757
178	86.751
179	86.762
180	86.759
181	86.761
182	86.762
183	86.754
184	86.765
185	86.764
186	86.767
187	86.765
188	86.765
189	86.77
190	86.758
191	86.768
192	86.77
193	86.757
194	86.759
195	86.758
196	86.764
197	86.768
198	86.75
199	86.751
200	86.752
201	86.748
202	86.742
203	86.737
204	86.735
205	86.731
206	86.715
207	86.716
208	86.714
209	86.701
210	86.694
211	86.686
212	86.689
213	86.686
214	86.679
215	86.68
216	86.678
217	86.673
218	86.675
219	86.672
220	86.677
221	86.678
222	86.676
223	86.685
224	86.689
225	86.692
226	86.692
227	86.684
228	86.694
229	86.695
230	86.682
231	86.679
232	86.671
233	86.665
234	86.661
235	86.651
236	86.646
237	86.642
238	86.634
239	86.633
240	86.627
241	86.627
242	86.634
243	86.634
244	86.634
245	86.63
246	86.634
247	86.632
248	86.627
249	86.629
250	86.627
251	86.625
252	86.62
253	86.615
254	86.618
255	86.615
256	86.611
257	86.621
258	86.628
259	86.636
260	86.644
261	86.643
262	86.649
263	86.643
264	86.639
265	86.64
266	86.634
267	86.634
268	86.633
269	86.631
270	86.63
271	86.623
272	86.621
273	86.619
274	86.616
275	86.61
276	86.611
277	86.606
278	86.606
279	86.602
280	86.592
281	86.598
282	86.592
283	86.585
284	86.583
285	86.575
286	86.578
287	86.569
288	86.561
289	86.557
290	86.55
291	86.548
292	86.543
293	86.544
294	86.539
295	86.525
296	86.523
297	86.529
298	86.513
299	86.509
300	86.522
301	86.511
302	86.506
303	86.512
304	86.506
305	86.501
306	86.504
307	86.505
308	86.507
309	86.502
310	86.503
311	86.504
312	86.497
313	86.492
314	86.498
315	86.493
316	86.483
317	86.501
318	86.497
319	86.482
320	86.489
321	86.487
322	86.485
323	86.485
324	86.479
325	86.477
326	86.484
327	86.483
328	86.475
329	86.483
330	86.484
331	86.478
332	86.485
333	86.485
334	86.479
335	86.482
336	86.479
337	86.488
338	86.494
339	86.485
340	86.486
341	86.482
342	86.479
343	86.487
344	86.486
345	86.476
346	86.481
347	86.489
348	86.491
349	86.489
350	86.485
351	86.481
352	86.48
353	86.488
354	86.492
355	86.487
356	86.49
357	86.492
358	86.496
359	86.497
360	86.495
361	86.502
362	86.5
363	86.502
364	86.506
365	86.502
366	86.51
367	86.505
368	86.504
369	86.52
370	86.517
371	86.515
372	86.518
373	86.514
374	86.52
375	86.518
376	86.522
377	86.527
378	86.522
379	86.525
380	86.519
381	86.517
382	86.515
383	86.511
384	86.515
385	86.512
386	86.507
387	86.501
388	86.495
389	86.5
390	86.508
391	86.501
392	86.493
393	86.492
394	86.49
395	86.488
396	86.489
397	86.484
398	86.482
399	86.487
400	86.485
401	86.478
402	86.48
403	86.477
404	86.477
405	86.472
406	86.474
407	86.48
408	86.482
409	86.483
410	86.486
411	86.497
412	86.503
413	86.519
414	86.536
415	86.541
416	86.561
417	86.577
418	86.593
419	86.612
420	86.629
421	86.638
422	86.648
423	86.668
424	86.682
425	86.692
426	86.701
427	86.709
428	86.718
429	86.721
430	86.724
431	86.731
432	86.736
433	86.741
434	86.742
435	86.749
436	86.757
437	86.762
438	86.764
439	86.768
440	86.778
441	86.772
442	86.775
443	86.784
444	86.788
445	86.791
446	86.787
447	86.794
448	86.798
449	86.795
450	86.794
451	86.801
452	86.803
453	86.8
454	86.802
455	86.8
456	86.799
457	86.806
458	86.809
459	86.81
460	86.81
461	86.811
462	86.81
463	86.808
464	86.809
465	86.811
466	86.808
467	86.813
468	86.819
469	86.816
470	86.815
471	86.813
472	86.815
473	86.812
474	86.814
475	86.819
476	86.818
477	86.819
478	86.816
479	86.82
480	86.823
481	86.819
482	86.823
483	86.824
484	86.82
485	86.826
486	86.828
487	86.826
488	86.832
489	86.832
490	86.83
491	86.836
492	86.837
493	86.836
494	86.841
495	86.844
496	86.847
497	86.845
498	86.846
499	86.856
500	86.855
501	86.862
502	86.863
503	86.867
504	86.873
505	86.866
506	86.877
507	86.886
508	86.882
509	86.892
510	86.898
511	86.896
512	86.905
513	86.911
514	86.912
515	86.916
516	86.919
517	86.926
518	86.932
519	86.933
520	86.937
521	86.942
522	86.947
523	86.951
524	86.957
525	86.962
526	86.965
527	86.972
528	86.98
529	86.988
530	86.993
531	87
532	87.003
533	87.008
534	87.015
535	87.024
536	87.034
537	87.039
538	87.045
539	87.049
540	87.053
541	87.062
542	87.069
543	87.076
544	87.083
545	87.088
546	87.099
547	87.107
548	87.113
549	87.116
550	87.127
551	87.137
552	87.14
553	87.141
554	87.148
555	87.155
556	87.158
557	87.17
558	87.174
559	87.177
560	87.185
561	87.195
562	87.2
563	87.204
564	87.208
565	87.211
566	87.217
567	87.224
568	87.23
569	87.231
570	87.233
571	87.233
572	87.24
573	87.246
574	87.243
575	87.249
576	87.252
577	87.256
578	87.265
579	87.263
580	87.264
581	87.268
582	87.27
583	87.271
584	87.272
585	87.276
586	87.275
587	87.28
588	87.281
589	87.284
590	87.286
591	87.282
592	87.286
593	87.287
594	87.289
595	87.287
596	87.288
597	87.289
598	87.29
599	87.295
600	87.293
601	87.292
602	87.298
603	87.299
604	87.296
605	87.297
606	87.302
607	87.305
608	87.305
609	87.304
610	87.301
611	87.307
612	87.312
613	87.305
614	87.308
615	87.313
616	87.309
617	87.31
618	87.309
619	87.316
620	87.323
621	87.314
622	87.323
623	87.325
624	87.325
625	87.334
626	87.331
627	87.333
628	87.336
629	87.335
630	87.342
631	87.346
632	87.346
633	87.357
634	87.36
635	87.368
636	87.372
637	87.372
638	87.376
639	87.378
640	87.389
641	87.393
642	87.39
643	87.398
644	87.407
645	87.41
646	87.411
647	87.42
648	87.42
649	87.422
650	87.43
651	87.43
652	87.443
653	87.445
654	87.445
655	87.457
656	87.462
657	87.462
658	87.47
659	87.476
660	87.475
661	87.482
662	87.495
663	87.496
664	87.499
665	87.511
666	87.514
667	87.516
668	87.518
669	87.524
670	87.529
671	87.533
672	87.542
673	87.539
674	87.545
675	87.552
676	87.557
677	87.558
678	87.562
679	87.568
680	87.567
681	87.572
682	87.572
683	87.569
684	87.575
685	87.579
686	87.577
687	87.58
688	87.585
689	87.58
690	87.581
691	87.582
692	87.582
693	87.582
694	87.581
695	87.578
696	87.578
697	87.576
698	87.573
699	87.573
700	87.565
701	87.562
702	87.561
703	87.558
704	87.556
705	87.553
706	87.545
707	87.542
708	87.539
709	87.527
710	87.521
711	87.514
712	87.506
713	87.497
714	87.491
715	87.483
716	87.474
717	87.469
718	87.46
719	87.451
720	87.436
721	87.425
722	87.412
723	87.398
724	87.391
725	87.379
726	87.363
727	87.354
728	87.339
729	87.324
730	87.304
731	87.296
732	87.279
733	87.264
734	87.254
735	87.229
736	87.208
737	87.192
738	87.182
739	87.164
740	87.141
741	87.12
742	87.109
743	87.091
744	87.071
745	87.057
746	87.037
747	87.016
748	86.998
749	86.984
750	86.962
751	86.939
752	86.914
753	86.899
754	86.879
755	86.86
756	86.84
757	86.826
758	86.803
759	86.784
760	86.772
761	86.749
762	86.728
763	86.71
764	86.696
765	86.673
766	86.649
767	86.634
768	86.622
769	86.606
770	86.592
771	86.579
772	86.562
773	86.542
774	86.527
775	86.517
776	86.501
777	86.49
778	86.476
779	86.469
780	86.463
781	86.448
782	86.44
783	86.436
784	86.422
785	86.415
786	86.413
787	86.41
788	86.4
789	86.391
790	86.389
791	86.382
792	86.38
793	86.383
794	86.379
795	86.372
796	86.377
797	86.379
798	86.376
799	86.376
800	86.373
801	86.374
802	86.382
803	86.377
804	86.379
805	86.386
806	86.381
807	86.386
808	86.39
809	86.392
810	86.401
811	86.4
812	86.407
813	86.413
814	86.42
815	86.424
816	86.424
817	86.431
818	86.428
819	86.436
820	86.443
821	86.448
822	86.458
823	86.462
824	86.463
825	86.475
826	86.484
827	86.483
828	86.488
829	86.495
830	86.497
831	86.5
832	86.507
833	86.518
834	86.525
835	86.527
836	86.537
837	86.544
838	86.55
839	86.558
840	86.56
841	86.571
842	86.579
843	86.581
844	86.582
845	86.591
846	86.603
847	86.609
848	86.607
849	86.614
850	86.619
851	86.627
852	86.63
853	86.632
854	86.641
855	86.648
856	86.65
857	86.655
858	86.664
859	86.666
860	86.674
861	86.676
862	86.676
863	86.682
864	86.684
865	86.691
866	86.7
867	86.706
868	86.707
869	86.713
870	86.722
871	86.723
872	86.727
873	86.729
874	86.733
875	86.739
876	86.743
877	86.745
878	86.745
879	86.747
880	86.753
881	86.754
882	86.761
883	86.764
884	86.766
885	86.769
886	86.767
887	86.774
888	86.778
889	86.771
890	86.773
891	86.781
892	86.788
893	86.783
894	86.783
895	86.791
896	86.794
897	86.797
898	86.801
899	86.8
900	86.799
901	86.799
902	86.803
903	86.807
904	86.807
905	86.812
906	86.812
907	86.809
908	86.812
909	86.812
910	86.812
911	86.817
912	86.823
913	86.822
914	86.821
915	86.819
916	86.824
917	86.829
918	86.826
919	86.825
920	86.823
921	86.83
922	86.825
923	86.825
924	86.83
925	86.824
926	86.829
927	86.831
928	86.83
929	86.834
930	86.834
931	86.838
932	86.839
933	86.837
934	86.837
935	86.838
936	86.838
937	86.836
938	86.835
939	86.835
940	86.837
941	86.839
942	86.838
943	86.839
944	86.842
945	86.838
946	86.839
947	86.843
948	86.843
949	86.845
950	86.848
951	86.846
952	86.844
953	86.848
954	86.849
955	86.847
956	86.851
957	86.85
958	86.848
959	86.854
960	86.847
961	86.848
962	86.855
963	86.855
964	86.859
965	86.862
966	86.862
967	86.862
968	86.863
969	86.866
970	86.864
971	86.868
972	86.871
973	86.867
974	86.871
975	86.877
976	86.874
977	86.875
978	86.877
979	86.877
980	86.881
981	86.881
982	86.884
983	86.891
984	86.893
985	86.893
986	86.899
987	86.902
988	86.909
989	86.904
990	86.905
991	86.917
992	86.917
993	86.916
994	86.922
995	86.928
996	86.931
997	86.926
998	86.933
999	86.925
1000	86.905
1001	86.945
1002	86.951
1003	86.94
1004	86.951
1005	86.956
1006	86.959
1007	86.962
1008	86.971
1009	86.975
1010	86.974
1011	86.977
1012	86.986
1013	86.985
1014	86.988
1015	86.994
1016	86.991
1017	86.996
1018	87.001
1019	87.003
1020	87.007
1021	87.009
1022	87.017
1023	87.017
1024	87.017
1025	87.028
1026	87.035
1027	87.039
1028	87.045
1029	87.046
1030	87.052
1031	87.056
1032	87.056
1033	87.065
1034	87.062
1035	87.064
1036	87.072
1037	87.073
1038	87.077
1039	87.081
1040	87.086
1041	87.088
1042	87.09
1043	87.093
1044	87.096
1045	87.107
1046	87.107
1047	87.109
1048	87.118
1049	87.118
1050	87.126
1051	87.129
1052	87.128
1053	87.134
1054	87.14
1055	87.147
1056	87.151
1057	87.152
1058	87.151
1059	87.161
1060	87.165
1061	87.167
1062	87.164
1063	87.174
1064	87.178
1065	87.177
1066	87.188
1067	87.19
1068	87.191
1069	87.193
1070	87.194
1071	87.199
1072	87.203
1073	87.204
1074	87.206
1075	87.215
1076	87.216
1077	87.225
1078	87.231
1079	87.21
1080	87.211
1081	87.219
1082	87.222
1083	87.229
1084	87.23
1085	87.236
1086	87.25
1087	87.248
1088	87.25
1089	87.259
1090	87.257
1091	87.26
1092	87.265
1093	87.272
1094	87.274
1095	87.276
1096	87.286
1097	87.289
1098	87.291
1099	87.297
1100	87.3
1101	87.301
1102	87.305
1103	87.312
1104	87.316
1105	87.322
1106	87.322
1107	87.331
1108	87.332
1109	87.328
1110	87.34
1111	87.343
1112	87.344
1113	87.345
1114	87.351
1115	87.36
1116	87.358
1117	87.359
1118	87.36
1119	87.365
1120	87.369
1121	87.375
1122	87.382
1123	87.386
1124	87.388
1125	87.391
1126	87.391
1127	87.394
1128	87.397
1129	87.397
1130	87.4
1131	87.401
1132	87.404
1133	87.41
1134	87.418
1135	87.421
1136	87.419
1137	87.421
1138	87.421
1139	87.423
1140	87.428
1141	87.428
1142	87.436
1143	87.441
1144	87.435
1145	87.439
1146	87.442
1147	87.442
1148	87.449
1149	87.452
1150	87.456
1151	87.453
1152	87.45
1153	87.453
1154	87.454
1155	87.458
1156	87.461
1157	87.459
1158	87.459
1159	87.464
1160	87.467
1161	87.461
1162	87.458
1163	87.467
1164	87.464
1165	87.465
1166	87.468
1167	87.464
1168	87.464
1169	87.468
1170	87.465
1171	87.463
1172	87.466
1173	87.464
1174	87.464
1175	87.468
1176	87.466
1177	87.463
1178	87.465
1179	87.461
1180	87.459
1181	87.463
1182	87.46
1183	87.458
1184	87.46
1185	87.461
1186	87.454
1187	87.448
1188	87.454
1189	87.454
1190	87.453
1191	87.453
1192	87.451
1193	87.45
1194	87.447
1195	87.449
1196	87.448
1197	87.438
1198	87.439
1199	87.436
1200	87.432
1201	87.432
1202	87.432
1203	87.433
1204	87.423
1205	87.428
1206	87.43
1207	87.424
1208	87.422
1209	87.42
1210	87.421
1211	87.414
1212	87.413
1213	87.413
1214	87.41
1215	87.411
1216	87.399
1217	87.395
1218	87.395
1219	87.393
1220	87.388
1221	87.383
1222	87.379
1223	87.375
1224	87.375
1225	87.372
1226	87.367
1227	87.364
1228	87.363
1229	87.364
1230	87.36
1231	87.355
1232	87.347
1233	87.343
1234	87.343
1235	87.337
1236	87.333
1237	87.329
1238	87.323
1239	87.317
1240	87.318
1241	87.312
1242	87.309
1243	87.313
1244	87.309
1245	87.298
1246	87.3
1247	87.295
1248	87.284
1249	87.283
1250	87.281
1251	87.279
1252	87.266
1253	87.258
1254	87.262
1255	87.255
1256	87.246
1257	87.245
1258	87.238
1259	87.233
1260	87.235
1261	87.229
1262	87.224
1263	87.217
1264	87.21
1265	87.204
1266	87.208
1267	87.204
1268	87.189
1269	87.189
1270	87.186
1271	87.178
1272	87.178
1273	87.167
1274	87.155
1275	87.155
1276	87.151
1277	87.153
1278	87.139
1279	87.132
1280	87.132
1281	87.118
1282	87.117
1283	87.111
1284	87.103
1285	87.098
1286	87.097
1287	87.091
1288	87.085
1289	87.078
1290	87.072
1291	87.068
1292	87.061
1293	87.056
1294	87.054
1295	87.043
1296	87.034
1297	87.032
1298	87.026
1299	87.028
1300	87.024
1301	87.011
1302	87.007
1303	87.004
1304	86.999
1305	86.988
1306	86.983
1307	86.979
1308	86.974
1309	86.969
1310	86.967
1311	86.957
1312	86.941
1313	86.942
1314	86.934
1315	86.929
1316	86.924
1317	86.91
1318	86.906
1319	86.901
1320	86.893
1321	86.888
1322	86.877
1323	86.88
1324	86.87
1325	86.864
1326	86.862
1327	86.857
1328	86.851
1329	86.841
1330	86.835
1331	86.829
1332	86.823
1333	86.817
1334	86.806
1335	86.798
1336	86.799
1337	86.788
1338	86.783
1339	86.782
1340	86.771
1341	86.764
1342	86.759
1343	86.753
1344	86.742
1345	86.739
1346	86.733
1347	86.726
1348	86.719
1349	86.717
1350	86.708
1351	86.7
1352	86.695
1353	86.686
1354	86.68
1355	86.674
1356	86.668
1357	86.658
1358	86.656
1359	86.652
1360	86.655
1361	86.65
1362	86.643
1363	86.643
1364	86.635
1365	86.627
1366	86.628
1367	86.615
1368	86.609
1369	86.604
1370	86.593
1371	86.592
1372	86.575
1373	86.569
1374	86.569
1375	86.558
1376	86.549
1377	86.543
1378	86.533
1379	86.527
1380	86.525
1381	86.516
1382	86.517
1383	86.513
1384	86.503
1385	86.491
1386	86.481
1387	86.475
1388	86.47
1389	86.465
1390	86.455
1391	86.457
1392	86.455
1393	86.437
1394	86.433
1395	86.427
1396	86.422
1397	86.415
1398	86.407
1399	86.4
1400	86.387
1401	86.383
1402	86.369
1403	86.368
1404	86.365
1405	86.354
1406	86.348
1407	86.336
1408	86.335
1409	86.325
1410	86.319
1411	86.316
1412	86.306
1413	86.301
1414	86.295
1415	86.284
1416	86.282
1417	86.277
1418	86.269
1419	86.261
1420	86.259
1421	86.25
1422	86.234
1423	86.232
1424	86.223
1425	86.215
1426	86.207
1427	86.198
1428	86.191
1429	86.184
1430	86.178
1431	86.17
1432	86.155
1433	86.154
1434	86.153
1435	86.138
1436	86.134
1437	86.129
1438	86.121
1439	86.117
1440	86.11
1441	86.097
1442	86.091
1443	86.087
1444	86.077
1445	86.062
1446	86.059
1447	86.055
1448	86.046
1449	86.042
1450	86.031
1451	86.022
1452	86.015
1453	86.009
1454	86.005
1455	85.994
1456	85.978
1457	85.973
1458	85.968
1459	85.966
1460	85.951
1461	85.943
1462	85.942
1463	85.932
1464	85.931
1465	85.915
1466	85.905
1467	85.905
1468	85.896
1469	85.891
1470	85.892
1471	85.873
1472	85.867
1473	85.864
1474	85.853
1475	85.844
1476	85.836
1477	85.836
1478	85.825
1479	85.812
1480	85.803
1481	85.799
1482	85.788
1483	85.781
1484	85.779
1485	85.768
1486	85.766
1487	85.756
1488	85.745
1489	85.742
1490	85.74
1491	85.719
1492	85.714
1493	85.711
1494	85.698
1495	85.696
1496	85.687
1497	85.673
1498	85.681
1499	85.678
1500	85.659
1501	85.658
1502	85.652
1503	85.642
1504	85.632
1505	85.621
1506	85.614
1507	85.608
1508	85.598
1509	85.59
1510	85.584
1511	85.575
1512	85.57
1513	85.567
1514	85.556
1515	85.543
1516	85.537
1517	85.524
1518	85.521
1519	85.521
1520	85.504
1521	85.499
1522	85.502
1523	85.481
1524	85.476
1525	85.474
1526	85.463
1527	85.459
1528	85.447
1529	85.441
1530	85.437
1531	85.43
1532	85.421
1533	85.416
1534	85.41
1535	85.402
1536	85.394
1537	85.382
1538	85.378
1539	85.366
1540	85.358
1541	85.359
1542	85.351
1543	85.346
1544	85.338
1545	85.325
1546	85.319
1547	85.312
1548	85.299
1549	85.298
1550	85.3
1551	85.294
1552	85.281
1553	85.272
1554	85.27
1555	85.26
1556	85.249
1557	85.24
1558	85.228
1559	85.223
1560	85.219
1561	85.218
1562	85.208
1563	85.197
1564	85.194
1565	85.18
1566	85.176
1567	85.175
1568	85.167
1569	85.159
1570	85.151
1571	85.149
1572	85.147
1573	85.137
1574	85.127
1575	85.119
1576	85.104
1577	85.093
1578	85.092
1579	85.092
1580	85.083
1581	85.069
1582	85.058
1583	85.066
1584	85.058
1585	85.051
1586	85.037
1587	85.026
1588	85.022
1589	85.014
1590	85.007
1591	85.001
1592	85
1593	84.994
1594	84.987
1595	84.98
1596	84.966
1597	84.958
1598	84.954
1599	84.948
1600	84.943
1601	84.936
1602	84.93
1603	84.922
1604	84.917
1605	84.904
1606	84.892
1607	84.891
1608	84.885
1609	84.875
1610	84.866
1611	84.863
1612	84.862
1613	84.858
1614	84.852
1615	84.839
1616	84.839
1617	84.825
1618	84.816
1619	84.814
1620	84.802
1621	84.805
1622	84.808
1623	84.792
1624	84.791
1625	84.783
1626	84.766
1627	84.771
1628	84.755
1629	84.748
1630	84.743
1631	84.735
1632	84.725
1633	84.722
1634	84.722
1635	84.71
1636	84.704
1637	84.692
1638	84.684
1639	84.688
1640	84.678
1641	84.676
1642	84.672
1643	84.655
1644	84.658
1645	84.659
1646	84.646
1647	84.643
1648	84.636
1649	84.627
1650	84.614
