Freq(Hz)	SPL(dB)
20	73.31
21	73.721
22	74.688
23	75.313
24	75.526
25	75.615
26	75.704
27	75.95
28	76.363
29	76.697
30	77.23
31	77.644
32	77.925
33	78.071
34	78.228
35	78.402
36	78.54
37	78.763
38	78.999
39	79.252
40	79.397
41	79.555
42	79.649
43	79.786
44	79.912
45	80.04
46	80.107
47	80.154
48	80.19
49	80.272
50	80.389
51	80.444
52	80.558
53	80.679
54	80.81
55	80.903
56	81.016
57	81.131
58	81.238
59	81.301
60	81.397
61	81.476
62	81.523
63	81.578
64	81.604
65	81.631
66	81.639
67	81.628
68	81.603
69	81.565
70	81.523
71	81.423
72	81.307
73	81.208
74	81.042
75	80.9
76	80.796
77	80.757
78	80.747
79	80.81
80	80.913
81	80.999
82	81.154
83	81.32
84	81.48
85	81.583
86	81.723
87	81.847
88	81.918
89	82.017
90	82.104
91	82.172
92	82.223
93	82.297
94	82.356
95	82.409
96	82.45
97	82.487
98	82.519
99	82.547
100	82.579
101	82.625
102	82.652
103	82.665
104	82.703
105	82.73
106	82.738
107	82.749
108	82.774
109	82.792
110	82.806
111	82.82
112	82.837
113	82.845
114	82.856
115	82.883
116	82.893
117	82.882
118	82.891
119	82.933
120	82.921
121	82.922
122	82.946
123	82.943
124	82.949
125	82.963
126	82.967
127	82.986
128	82.992
129	82.992
130	83.01
131	83.008
132	83.02
133	83.033
134	83.036
135	83.046
136	83.061
137	83.059
138	83.07
139	83.072
140	83.072
141	83.1
142	83.089
143	83.095
144	83.097
145	83.098
146	83.102
147	83.098
148	83.106
149	83.106
150	83.115
151	83.115
152	83.115
153	83.119
154	83.121
155	83.124
156	83.113
157	83.125
158	83.132
159	83.124
160	83.126
161	83.13
162	83.139
163	83.137
164	83.135
165	83.151
166	83.147
167	83.141
168	83.15
169	83.144
170	83.145
171	83.131
172	83.129
173	83.128
174	83.122
175	83.13
176	83.123
177	83.121
178	83.128
179	83.119
180	83.112
181	83.105
182	83.1
183	83.112
184	83.102
185	83.103
186	83.097
187	83.09
188	83.096
189	83.084
190	83.088
191	83.091
192	83.083
193	83.08
194	83.08
195	83.078
196	83.069
197	83.075
198	83.078
199	83.061
200	83.069
201	83.077
202	83.071
203	83.071
204	83.079
205	83.096
206	83.09
207	83.088
208	83.086
209	83.086
210	83.091
211	83.078
212	83.08
213	83.095
214	83.09
215	83.088
216	83.087
217	83.089
218	83.093
219	83.094
220	83.091
221	83.084
222	83.082
223	83.088
224	83.086
225	83.08
226	83.079
227	83.079
228	83.069
229	83.068
230	83.075
231	83.067
232	83.064
233	83.061
234	83.061
235	83.062
236	83.057
237	83.061
238	83.055
239	83.055
240	83.054
241	83.04
242	83.049
243	83.043
244	83.039
245	83.044
246	83.04
247	83.04
248	83.035
249	83.015
250	83.016
251	83.026
252	83.021
253	83.013
254	83.026
255	83.023
256	83.003
257	83.026
258	83.014
259	82.995
260	83.008
261	83.008
262	83.001
263	83.001
264	82.995
265	82.994
266	82.99
267	82.981
268	82.986
269	82.994
270	82.986
271	82.979
272	82.972
273	82.987
274	82.993
275	82.974
276	82.976
277	82.973
278	82.963
279	82.95
280	82.954
281	82.95
282	82.957
283	82.954
284	82.945
285	82.957
286	82.953
287	82.952
288	82.95
289	82.953
290	82.962
291	82.945
292	82.941
293	82.945
294	82.935
295	82.933
296	82.938
297	82.931
298	82.925
299	82.932
300	82.929
301	82.921
302	82.925
303	82.925
304	82.914
305	82.91
306	82.914
307	82.908
308	82.903
309	82.896
310	82.895
311	82.888
312	82.877
313	82.877
314	82.869
315	82.862
316	82.864
317	82.862
318	82.862
319	82.872
320	82.861
321	82.857
322	82.856
323	82.857
324	82.862
325	82.845
326	82.838
327	82.852
328	82.856
329	82.858
330	82.857
331	82.855
332	82.863
333	82.856
334	82.865
335	82.875
336	82.873
337	82.886
338	82.879
339	82.885
340	82.912
341	82.915
342	82.918
343	82.918
344	82.923
345	82.948
346	82.955
347	82.962
348	82.983
349	82.984
350	82.971
351	82.998
352	83.011
353	83.02
354	83.022
355	83.038
356	83.045
357	83.068
358	83.059
359	83.044
360	83.07
361	83.066
362	83.073
363	83.08
364	83.069
365	83.073
366	83.068
367	83.07
368	83.074
369	83.069
370	83.075
371	83.063
372	83.057
373	83.053
374	83.039
375	83.035
376	83.03
377	83.025
378	83.024
379	83.016
380	83.014
381	83.008
382	82.996
383	82.986
384	82.983
385	82.968
386	82.946
387	82.945
388	82.922
389	82.924
390	82.914
391	82.891
392	82.887
393	82.877
394	82.874
395	82.862
396	82.853
397	82.854
398	82.832
399	82.823
400	82.82
401	82.8
402	82.802
403	82.789
404	82.775
405	82.761
406	82.756
407	82.746
408	82.743
409	82.748
410	82.73
411	82.721
412	82.72
413	82.716
414	82.711
415	82.71
416	82.708
417	82.703
418	82.714
419	82.71
420	82.703
421	82.704
422	82.695
423	82.702
424	82.695
425	82.686
426	82.688
427	82.683
428	82.683
429	82.669
430	82.666
431	82.669
432	82.651
433	82.656
434	82.663
435	82.65
436	82.647
437	82.65
438	82.647
439	82.645
440	82.639
441	82.638
442	82.639
443	82.637
444	82.65
445	82.645
446	82.646
447	82.658
448	82.65
449	82.643
450	82.648
451	82.666
452	82.663
453	82.664
454	82.667
455	82.664
456	82.665
457	82.667
458	82.681
459	82.678
460	82.677
461	82.671
462	82.672
463	82.679
464	82.665
465	82.671
466	82.689
467	82.688
468	82.685
469	82.681
470	82.683
471	82.676
472	82.683
473	82.692
474	82.691
475	82.697
476	82.697
477	82.702
478	82.697
479	82.686
480	82.701
481	82.707
482	82.7
483	82.699
484	82.69
485	82.688
486	82.695
487	82.686
488	82.699
489	82.711
490	82.704
491	82.695
492	82.697
493	82.699
494	82.695
495	82.707
496	82.708
497	82.703
498	82.702
499	82.7
500	82.695
501	82.701
502	82.711
503	82.706
504	82.707
505	82.717
506	82.726
507	82.733
508	82.738
509	82.737
510	82.746
511	82.745
512	82.748
513	82.768
514	82.753
515	82.742
516	82.746
517	82.749
518	82.757
519	82.753
520	82.739
521	82.753
522	82.758
523	82.76
524	82.758
525	82.762
526	82.774
527	82.772
528	82.78
529	82.772
530	82.772
531	82.783
532	82.788
533	82.795
534	82.79
535	82.799
536	82.793
537	82.798
538	82.805
539	82.792
540	82.8
541	82.8
542	82.799
543	82.818
544	82.822
545	82.826
546	82.838
547	82.845
548	82.843
549	82.835
550	82.835
551	82.839
552	82.837
553	82.833
554	82.836
555	82.832
556	82.829
557	82.85
558	82.857
559	82.869
560	82.869
561	82.865
562	82.879
563	82.871
564	82.874
565	82.883
566	82.878
567	82.882
568	82.886
569	82.883
570	82.893
571	82.904
572	82.903
573	82.903
574	82.908
575	82.902
576	82.909
577	82.922
578	82.918
579	82.925
580	82.938
581	82.932
582	82.93
583	82.937
584	82.936
585	82.944
586	82.95
587	82.946
588	82.947
589	82.943
590	82.942
591	82.952
592	82.945
593	82.944
594	82.96
595	82.968
596	82.97
597	82.976
598	82.985
599	82.999
600	83
601	83.001
602	83.004
603	83.003
604	83.007
605	83.009
606	83.022
607	83.028
608	83.03
609	83.045
610	83.057
611	83.061
612	83.062
613	83.074
614	83.085
615	83.08
616	83.079
617	83.089
618	83.089
619	83.09
620	83.092
621	83.091
622	83.098
623	83.102
624	83.113
625	83.115
626	83.112
627	83.126
628	83.127
629	83.125
630	83.138
631	83.147
632	83.149
633	83.148
634	83.151
635	83.157
636	83.166
637	83.162
638	83.166
639	83.173
640	83.176
641	83.181
642	83.177
643	83.198
644	83.212
645	83.203
646	83.204
647	83.216
648	83.218
649	83.225
650	83.228
651	83.231
652	83.247
653	83.249
654	83.246
655	83.251
656	83.252
657	83.249
658	83.249
659	83.246
660	83.248
661	83.26
662	83.268
663	83.279
664	83.286
665	83.293
666	83.292
667	83.296
668	83.304
669	83.291
670	83.302
671	83.307
672	83.305
673	83.312
674	83.308
675	83.314
676	83.328
677	83.321
678	83.328
679	83.326
680	83.331
681	83.339
682	83.336
683	83.347
684	83.353
685	83.361
686	83.366
687	83.368
688	83.382
689	83.381
690	83.378
691	83.386
692	83.381
693	83.376
694	83.379
695	83.378
696	83.371
697	83.376
698	83.387
699	83.375
700	83.384
701	83.385
702	83.381
703	83.384
704	83.378
705	83.382
706	83.39
707	83.394
708	83.394
709	83.394
710	83.395
711	83.392
712	83.395
713	83.402
714	83.39
715	83.389
716	83.4
717	83.403
718	83.405
719	83.412
720	83.413
721	83.405
722	83.413
723	83.419
724	83.428
725	83.435
726	83.43
727	83.436
728	83.436
729	83.443
730	83.436
731	83.429
732	83.427
733	83.424
734	83.432
735	83.433
736	83.428
737	83.43
738	83.43
739	83.427
740	83.441
741	83.444
742	83.445
743	83.454
744	83.447
745	83.446
746	83.456
747	83.451
748	83.451
749	83.458
750	83.458
751	83.463
752	83.469
753	83.475
754	83.475
755	83.47
756	83.475
757	83.482
758	83.48
759	83.47
760	83.472
761	83.478
762	83.473
763	83.476
764	83.483
765	83.493
766	83.499
767	83.497
768	83.509
769	83.518
770	83.514
771	83.52
772	83.521
773	83.52
774	83.518
775	83.51
776	83.513
777	83.524
778	83.534
779	83.54
780	83.538
781	83.55
782	83.549
783	83.555
784	83.569
785	83.571
786	83.575
787	83.584
788	83.586
789	83.583
790	83.59
791	83.597
792	83.595
793	83.611
794	83.617
795	83.607
796	83.609
797	83.612
798	83.622
799	83.625
800	83.629
801	83.635
802	83.633
803	83.636
804	83.637
805	83.645
806	83.652
807	83.652
808	83.668
809	83.675
810	83.676
811	83.685
812	83.691
813	83.699
814	83.704
815	83.709
816	83.721
817	83.71
818	83.713
819	83.728
820	83.719
821	83.72
822	83.733
823	83.734
824	83.729
825	83.733
826	83.731
827	83.731
828	83.739
829	83.732
830	83.734
831	83.735
832	83.742
833	83.76
834	83.761
835	83.764
836	83.782
837	83.797
838	83.802
839	83.811
840	83.818
841	83.823
842	83.832
843	83.837
844	83.84
845	83.849
846	83.847
847	83.837
848	83.838
849	83.84
850	83.839
851	83.858
852	83.855
853	83.851
854	83.858
855	83.865
856	83.871
857	83.872
858	83.876
859	83.874
860	83.883
861	83.88
862	83.879
863	83.885
864	83.877
865	83.884
866	83.882
867	83.882
868	83.88
869	83.862
870	83.866
871	83.869
872	83.872
873	83.872
874	83.876
875	83.89
876	83.893
877	83.893
878	83.913
879	83.918
880	83.907
881	83.906
882	83.911
883	83.907
884	83.912
885	83.912
886	83.898
887	83.896
888	83.893
889	83.893
890	83.891
891	83.893
892	83.903
893	83.904
894	83.909
895	83.918
896	83.918
897	83.932
898	83.934
899	83.93
900	83.941
901	83.949
902	83.957
903	83.958
904	83.954
905	83.954
906	83.961
907	83.957
908	83.961
909	83.964
910	83.962
911	83.969
912	83.967
913	83.979
914	83.995
915	84.003
916	84.007
917	84.015
918	84.018
919	84.002
920	83.995
921	84
922	84.009
923	84.003
924	84.008
925	84.027
926	84.027
927	84.027
928	84.029
929	84.014
930	84.012
931	84.014
932	84.013
933	84.015
934	84.012
935	84.022
936	84.041
937	84.044
938	84.042
939	84.044
940	84.048
941	84.041
942	84.04
943	84.046
944	84.056
945	84.056
946	84.054
947	84.056
948	84.052
949	84.041
950	84.035
951	84.024
952	84.023
953	84.025
954	84.02
955	84.025
956	84.032
957	84.038
958	84.052
959	84.063
960	84.074
961	84.081
962	84.081
963	84.097
964	84.097
965	84.073
966	84.071
967	84.07
968	84.076
969	84.091
970	84.091
971	84.108
972	84.118
973	84.114
974	84.134
975	84.134
976	84.13
977	84.156
978	84.153
979	84.148
980	84.163
981	84.163
982	84.17
983	84.178
984	84.184
985	84.177
986	84.169
987	84.174
988	84.175
989	84.171
990	84.176
991	84.173
992	84.168
993	84.184
994	84.182
995	84.18
996	84.198
997	84.189
998	84.193
999	84.19
1000	84.195
1001	84.237
1002	84.243
1003	84.241
1004	84.247
1005	84.253
1006	84.28
1007	84.287
1008	84.297
1009	84.314
1010	84.33
1011	84.345
1012	84.356
1013	84.363
1014	84.365
1015	84.371
1016	84.371
1017	84.377
1018	84.397
1019	84.414
1020	84.431
1021	84.432
1022	84.433
1023	84.449
1024	84.45
1025	84.456
1026	84.458
1027	84.462
1028	84.463
1029	84.469
1030	84.485
1031	84.483
1032	84.48
1033	84.489
1034	84.496
1035	84.508
1036	84.53
1037	84.544
1038	84.585
1039	84.61
1040	84.629
1041	84.656
1042	84.671
1043	84.693
1044	84.709
1045	84.707
1046	84.723
1047	84.748
1048	84.761
1049	84.764
1050	84.757
1051	84.762
1052	84.75
1053	84.728
1054	84.72
1055	84.702
1056	84.702
1057	84.705
1058	84.71
1059	84.729
1060	84.742
1061	84.748
1062	84.76
1063	84.772
1064	84.792
1065	84.807
1066	84.822
1067	84.828
1068	84.833
1069	84.829
1070	84.814
1071	84.821
1072	84.825
1073	84.835
1074	84.83
1075	84.833
1076	84.856
1077	84.869
1078	84.897
1079	84.922
1080	84.926
1081	84.959
1082	84.979
1083	84.981
1084	84.984
1085	84.975
1086	84.983
1087	84.98
1088	84.969
1089	84.971
1090	84.986
1091	85.001
1092	85.016
1093	85.042
1094	85.057
1095	85.076
1096	85.101
1097	85.112
1098	85.122
1099	85.153
1100	85.162
1101	85.171
1102	85.189
1103	85.198
1104	85.189
1105	85.19
1106	85.185
1107	85.183
1108	85.187
1109	85.189
1110	85.202
1111	85.22
1112	85.251
1113	85.269
1114	85.289
1115	85.291
1116	85.289
1117	85.289
1118	85.263
1119	85.251
1120	85.247
1121	85.237
1122	85.248
1123	85.257
1124	85.265
1125	85.288
1126	85.3
1127	85.314
1128	85.333
1129	85.352
1130	85.361
1131	85.363
1132	85.363
1133	85.375
1134	85.389
1135	85.396
1136	85.406
1137	85.416
1138	85.424
1139	85.429
1140	85.434
1141	85.443
1142	85.446
1143	85.454
1144	85.461
1145	85.445
1146	85.453
1147	85.471
1148	85.485
1149	85.493
1150	85.504
1151	85.529
1152	85.514
1153	85.519
1154	85.52
1155	85.51
1156	85.506
1157	85.494
1158	85.493
1159	85.494
1160	85.493
1161	85.506
1162	85.539
1163	85.572
1164	85.609
1165	85.626
1166	85.657
1167	85.681
1168	85.698
1169	85.713
1170	85.711
1171	85.711
1172	85.722
1173	85.721
1174	85.724
1175	85.741
1176	85.742
1177	85.749
1178	85.771
1179	85.792
1180	85.801
1181	85.805
1182	85.823
1183	85.83
1184	85.827
1185	85.832
1186	85.821
1187	85.816
1188	85.814
1189	85.807
1190	85.822
1191	85.84
1192	85.853
1193	85.866
1194	85.844
1195	85.835
1196	85.849
1197	85.849
1198	85.86
1199	85.863
1200	85.857
1201	85.865
1202	85.868
1203	85.862
1204	85.876
1205	85.882
1206	85.875
1207	85.871
1208	85.858
1209	85.844
1210	85.835
1211	85.836
1212	85.84
1213	85.839
1214	85.849
1215	85.863
1216	85.874
1217	85.865
1218	85.861
1219	85.88
1220	85.884
1221	85.893
1222	85.914
1223	85.928
1224	85.933
1225	85.922
1226	85.915
1227	85.903
1228	85.891
1229	85.887
1230	85.886
1231	85.889
1232	85.914
1233	85.95
1234	85.97
1235	86.004
1236	86.025
1237	86.041
1238	86.035
1239	86.029
1240	86.031
1241	86.028
1242	86.022
1243	86.025
1244	86.038
1245	86.064
1246	86.1
1247	86.126
1248	86.156
1249	86.177
1250	86.18
1251	86.179
1252	86.178
1253	86.179
1254	86.18
1255	86.175
1256	86.186
1257	86.204
1258	86.215
1259	86.222
1260	86.225
1261	86.224
1262	86.22
1263	86.22
1264	86.219
1265	86.22
1266	86.23
1267	86.231
1268	86.223
1269	86.217
1270	86.211
1271	86.215
1272	86.222
1273	86.227
1274	86.234
1275	86.236
1276	86.239
1277	86.261
1278	86.294
1279	86.325
1280	86.337
1281	86.352
1282	86.354
1283	86.348
1284	86.35
1285	86.345
1286	86.312
1287	86.265
1288	86.249
1289	86.243
1290	86.236
1291	86.247
1292	86.258
1293	86.223
1294	86.216
1295	86.218
1296	86.216
1297	86.235
1298	86.255
1299	86.263
1300	86.256
1301	86.251
1302	86.254
1303	86.245
1304	86.243
1305	86.244
1306	86.244
1307	86.252
1308	86.261
1309	86.274
1310	86.281
1311	86.3
1312	86.333
1313	86.362
1314	86.397
1315	86.426
1316	86.46
1317	86.468
1318	86.487
1319	86.501
1320	86.497
1321	86.495
1322	86.476
1323	86.451
1324	86.426
1325	86.413
1326	86.397
1327	86.376
1328	86.375
1329	86.384
1330	86.408
1331	86.445
1332	86.462
1333	86.48
1334	86.476
1335	86.483
1336	86.487
1337	86.475
1338	86.48
1339	86.483
1340	86.479
1341	86.471
1342	86.462
1343	86.452
1344	86.43
1345	86.415
1346	86.398
1347	86.403
1348	86.411
1349	86.404
1350	86.411
1351	86.408
1352	86.407
1353	86.401
1354	86.387
1355	86.38
1356	86.374
1357	86.36
1358	86.359
1359	86.366
1360	86.383
1361	86.391
1362	86.388
1363	86.391
1364	86.392
1365	86.393
1366	86.4
1367	86.404
1368	86.397
1369	86.391
1370	86.374
1371	86.353
1372	86.327
1373	86.31
1374	86.301
1375	86.279
1376	86.286
1377	86.3
1378	86.313
1379	86.313
1380	86.315
1381	86.315
1382	86.329
1383	86.36
1384	86.372
1385	86.387
1386	86.383
1387	86.387
1388	86.385
1389	86.366
1390	86.351
1391	86.343
1392	86.341
1393	86.353
1394	86.383
1395	86.416
1396	86.46
1397	86.495
1398	86.502
1399	86.491
1400	86.487
1401	86.488
1402	86.499
1403	86.506
1404	86.509
1405	86.509
1406	86.499
1407	86.483
1408	86.448
1409	86.405
1410	86.399
1411	86.385
1412	86.348
1413	86.327
1414	86.32
1415	86.314
1416	86.301
1417	86.284
1418	86.261
1419	86.247
1420	86.239
1421	86.232
1422	86.224
1423	86.207
1424	86.188
1425	86.188
1426	86.201
1427	86.222
1428	86.235
1429	86.227
1430	86.2
1431	86.181
1432	86.176
1433	86.198
1434	86.258
1435	86.31
1436	86.348
1437	86.383
1438	86.373
1439	86.344
1440	86.305
1441	86.258
1442	86.219
1443	86.168
1444	86.102
1445	86.074
1446	86.06
1447	86.057
1448	86.083
1449	86.139
1450	86.169
1451	86.181
1452	86.179
1453	86.174
1454	86.17
1455	86.166
1456	86.155
1457	86.154
1458	86.162
1459	86.184
1460	86.22
1461	86.227
1462	86.223
1463	86.215
1464	86.207
1465	86.196
1466	86.196
1467	86.179
1468	86.162
1469	86.157
1470	86.129
1471	86.103
1472	86.082
1473	86.075
1474	86.065
1475	86.064
1476	86.095
1477	86.125
1478	86.176
1479	86.241
1480	86.299
1481	86.336
1482	86.373
1483	86.385
1484	86.379
1485	86.335
1486	86.284
1487	86.22
1488	86.166
1489	86.102
1490	86.052
1491	86.017
1492	85.999
1493	85.996
1494	85.986
1495	85.966
1496	85.962
1497	85.952
1498	85.939
1499	85.939
1500	85.921
1501	85.912
1502	85.906
1503	85.904
1504	85.92
1505	85.918
1506	85.9
1507	85.891
1508	85.885
1509	85.895
1510	85.924
1511	85.976
1512	86.019
1513	86.064
1514	86.097
1515	86.148
1516	86.158
1517	86.132
1518	86.103
1519	86.046
1520	86.011
1521	86.012
1522	86.019
1523	86.048
1524	86.089
1525	86.108
1526	86.154
1527	86.19
1528	86.217
1529	86.219
1530	86.202
1531	86.191
1532	86.163
1533	86.145
1534	86.124
1535	86.114
1536	86.115
1537	86.133
1538	86.149
1539	86.147
1540	86.143
1541	86.137
1542	86.123
1543	86.121
1544	86.143
1545	86.186
1546	86.242
1547	86.273
1548	86.288
1549	86.312
1550	86.329
1551	86.331
1552	86.297
1553	86.223
1554	86.153
1555	86.099
1556	86.04
1557	86.016
1558	86.01
1559	86.023
1560	86.068
1561	86.131
1562	86.182
1563	86.249
1564	86.274
1565	86.275
1566	86.26
1567	86.231
1568	86.223
1569	86.206
1570	86.194
1571	86.165
1572	86.113
1573	86.089
1574	86.085
1575	86.087
1576	86.091
1577	86.101
1578	86.105
1579	86.105
1580	86.1
1581	86.083
1582	86.067
1583	86.077
1584	86.092
1585	86.101
1586	86.096
1587	86.083
1588	86.081
1589	86.086
1590	86.094
1591	86.099
1592	86.111
1593	86.117
1594	86.114
1595	86.113
1596	86.112
1597	86.11
1598	86.092
1599	86.086
1600	86.089
1601	86.082
1602	86.074
1603	86.065
1604	86.021
1605	85.959
1606	85.894
1607	85.864
1608	85.841
1609	85.834
1610	85.832
1611	85.827
1612	85.816
1613	85.8
1614	85.808
1615	85.801
1616	85.768
1617	85.746
1618	85.737
1619	85.748
1620	85.742
1621	85.739
1622	85.735
1623	85.733
1624	85.755
1625	85.772
1626	85.798
1627	85.801
1628	85.804
1629	85.807
1630	85.816
1631	85.827
1632	85.834
1633	85.854
1634	85.876
1635	85.879
1636	85.921
1637	85.935
1638	85.928
1639	85.928
1640	85.92
1641	85.898
1642	85.884
1643	85.86
1644	85.842
1645	85.827
1646	85.823
1647	85.829
1648	85.829
1649	85.853
1650	85.859
1651	85.837
1652	85.808
