Freq(Hz)	SPL(dB)
20	81.796
21	81.941
22	82.314
23	82.565
24	82.736
25	82.85
26	83.026
27	83.21
28	83.443
29	83.58
30	83.718
31	83.898
32	83.97
33	83.997
34	84.089
35	84.134
36	84.149
37	84.228
38	84.332
39	84.407
40	84.456
41	84.471
42	84.53
43	84.574
44	84.579
45	84.616
46	84.654
47	84.691
48	84.717
49	84.684
50	84.734
51	84.774
52	84.773
53	84.784
54	84.762
55	84.727
56	84.697
57	84.658
58	84.615
59	84.597
60	84.592
61	84.553
62	84.504
63	84.453
64	84.42
65	84.368
66	84.32
67	84.258
68	84.198
69	84.136
70	84.102
71	84.058
72	84.012
73	83.952
74	83.874
75	83.84
76	83.805
77	83.811
78	83.829
79	83.861
80	83.935
81	83.97
82	84.031
83	84.103
84	84.135
85	84.168
86	84.217
87	84.267
88	84.322
89	84.398
90	84.489
91	84.569
92	84.611
93	84.678
94	84.744
95	84.789
96	84.807
97	84.864
98	84.898
99	84.907
100	84.961
101	84.999
102	85.018
103	85.039
104	85.045
105	85.058
106	85.088
107	85.099
108	85.121
109	85.136
110	85.156
111	85.181
112	85.208
113	85.227
114	85.239
115	85.229
116	85.251
117	85.255
118	85.278
119	85.293
120	85.294
121	85.358
122	85.351
123	85.363
124	85.374
125	85.373
126	85.398
127	85.402
128	85.427
129	85.438
130	85.444
131	85.456
132	85.467
133	85.478
134	85.482
135	85.495
136	85.516
137	85.514
138	85.508
139	85.529
140	85.54
141	85.552
142	85.559
143	85.548
144	85.552
145	85.565
146	85.561
147	85.567
148	85.573
149	85.575
150	85.58
151	85.569
152	85.559
153	85.56
154	85.557
155	85.568
156	85.563
157	85.565
158	85.57
159	85.559
160	85.568
161	85.556
162	85.557
163	85.558
164	85.539
165	85.537
166	85.533
167	85.53
168	85.53
169	85.519
170	85.505
171	85.506
172	85.506
173	85.471
174	85.463
175	85.455
176	85.441
177	85.427
178	85.406
179	85.407
180	85.373
181	85.376
182	85.415
183	85.4
184	85.381
185	85.385
186	85.382
187	85.36
188	85.358
189	85.342
190	85.315
191	85.299
192	85.289
193	85.269
194	85.237
195	85.227
196	85.204
197	85.184
198	85.168
199	85.141
200	85.144
201	85.135
202	85.127
203	85.121
204	85.121
205	85.113
206	85.091
207	85.095
208	85.056
209	85.042
210	85.068
211	85.062
212	85.027
213	84.993
214	84.992
215	84.991
216	84.981
217	84.949
218	84.917
219	84.905
220	84.906
221	84.869
222	84.866
223	84.842
224	84.82
225	84.813
226	84.775
227	84.751
228	84.749
229	84.717
230	84.692
231	84.675
232	84.641
233	84.63
234	84.606
235	84.586
236	84.559
237	84.551
238	84.52
239	84.485
240	84.477
241	84.441
242	84.414
243	84.397
244	84.379
245	84.342
246	84.329
247	84.3
248	84.283
249	84.271
250	84.225
251	84.223
252	84.209
253	84.171
254	84.167
255	84.145
256	84.116
257	84.096
258	84.063
259	84.059
260	84.035
261	84.009
262	83.988
263	83.968
264	83.95
265	83.918
266	83.9
267	83.884
268	83.841
269	83.803
270	83.786
271	83.752
272	83.716
273	83.702
274	83.687
275	83.647
276	83.622
277	83.594
278	83.578
279	83.553
280	83.522
281	83.511
282	83.489
283	83.45
284	83.434
285	83.414
286	83.372
287	83.357
288	83.326
289	83.308
290	83.277
291	83.26
292	83.25
293	83.209
294	83.184
295	83.17
296	83.145
297	83.1
298	83.091
299	83.042
300	83.012
301	83
302	82.965
303	82.946
304	82.926
305	82.904
306	82.873
307	82.832
308	82.798
309	82.799
310	82.768
311	82.721
312	82.696
313	82.677
314	82.64
315	82.611
316	82.59
317	82.569
318	82.536
319	82.53
320	82.478
321	82.434
322	82.438
323	82.424
324	82.382
325	82.354
326	82.342
327	82.321
328	82.293
329	82.291
330	82.283
331	82.257
332	82.26
333	82.24
334	82.21
335	82.204
336	82.195
337	82.193
338	82.173
339	82.146
340	82.135
341	82.138
342	82.113
343	82.088
344	82.09
345	82.061
346	82.052
347	82.054
348	82.038
349	82.02
350	82.014
351	82.018
352	81.994
353	81.955
354	81.954
355	81.928
356	81.921
357	81.928
358	81.912
359	81.907
360	81.907
361	81.904
362	81.898
363	81.891
364	81.873
365	81.859
366	81.876
367	81.875
368	81.85
369	81.847
370	81.869
371	81.889
372	81.876
373	81.869
374	81.876
375	81.891
376	81.892
377	81.897
378	81.907
379	81.921
380	81.917
381	81.918
382	81.927
383	81.949
384	81.965
385	81.953
386	81.957
387	81.976
388	81.97
389	81.964
390	81.957
391	81.961
392	81.943
393	81.949
394	81.966
395	81.973
396	81.986
397	81.996
398	81.996
399	81.995
400	82.018
401	82.04
402	82.047
403	82.087
404	82.097
405	82.121
406	82.156
407	82.182
408	82.216
409	82.266
410	82.32
411	82.354
412	82.402
413	82.464
414	82.512
415	82.55
416	82.596
417	82.64
418	82.685
419	82.711
420	82.766
421	82.798
422	82.806
423	82.824
424	82.854
425	82.882
426	82.889
427	82.901
428	82.93
429	82.957
430	82.972
431	82.993
432	83.016
433	83.032
434	83.05
435	83.063
436	83.063
437	83.073
438	83.077
439	83.1
440	83.118
441	83.116
442	83.114
443	83.113
444	83.123
445	83.132
446	83.135
447	83.141
448	83.147
449	83.141
450	83.151
451	83.158
452	83.156
453	83.17
454	83.155
455	83.143
456	83.152
457	83.158
458	83.147
459	83.141
460	83.145
461	83.133
462	83.131
463	83.131
464	83.128
465	83.126
466	83.134
467	83.135
468	83.103
469	83.114
470	83.11
471	83.093
472	83.088
473	83.084
474	83.082
475	83.069
476	83.068
477	83.061
478	83.067
479	83.079
480	83.067
481	83.072
482	83.07
483	83.085
484	83.1
485	83.1
486	83.101
487	83.102
488	83.12
489	83.125
490	83.12
491	83.129
492	83.138
493	83.151
494	83.156
495	83.155
496	83.175
497	83.177
498	83.184
499	83.182
500	83.178
501	83.176
502	83.18
503	83.201
504	83.202
505	83.214
506	83.204
507	83.211
508	83.216
509	83.181
510	83.206
511	83.205
512	83.192
513	83.18
514	83.183
515	83.184
516	83.161
517	83.17
518	83.167
519	83.153
520	83.136
521	83.115
522	83.095
523	83.087
524	83.087
525	83.072
526	83.059
527	83.048
528	83.031
529	83.001
530	82.996
531	82.992
532	82.967
533	82.953
534	82.929
535	82.908
536	82.902
537	82.87
538	82.864
539	82.861
540	82.833
541	82.816
542	82.785
543	82.786
544	82.767
545	82.752
546	82.756
547	82.744
548	82.731
549	82.725
550	82.733
551	82.732
552	82.727
553	82.714
554	82.713
555	82.712
556	82.701
557	82.722
558	82.732
559	82.723
560	82.727
561	82.738
562	82.753
563	82.757
564	82.766
565	82.773
566	82.779
567	82.785
568	82.798
569	82.821
570	82.828
571	82.836
572	82.852
573	82.865
574	82.881
575	82.89
576	82.907
577	82.905
578	82.923
579	82.949
580	82.951
581	82.963
582	82.972
583	82.993
584	83.011
585	83.048
586	83.056
587	83.053
588	83.081
589	83.099
590	83.108
591	83.131
592	83.141
593	83.143
594	83.173
595	83.178
596	83.194
597	83.208
598	83.22
599	83.244
600	83.259
601	83.269
602	83.277
603	83.279
604	83.288
605	83.308
606	83.313
607	83.323
608	83.335
609	83.338
610	83.346
611	83.349
612	83.343
613	83.348
614	83.33
615	83.328
616	83.347
617	83.317
618	83.317
619	83.321
620	83.31
621	83.313
622	83.307
623	83.293
624	83.298
625	83.301
626	83.289
627	83.293
628	83.281
629	83.275
630	83.269
631	83.264
632	83.26
633	83.261
634	83.267
635	83.268
636	83.277
637	83.27
638	83.278
639	83.288
640	83.277
641	83.272
642	83.256
643	83.27
644	83.281
645	83.267
646	83.251
647	83.257
648	83.263
649	83.264
650	83.257
651	83.273
652	83.279
653	83.271
654	83.287
655	83.295
656	83.295
657	83.301
658	83.316
659	83.339
660	83.343
661	83.344
662	83.365
663	83.376
664	83.371
665	83.381
666	83.396
667	83.409
668	83.418
669	83.428
670	83.468
671	83.477
672	83.483
673	83.508
674	83.524
675	83.537
676	83.552
677	83.554
678	83.584
679	83.593
680	83.612
681	83.64
682	83.646
683	83.672
684	83.684
685	83.693
686	83.711
687	83.733
688	83.749
689	83.769
690	83.78
691	83.792
692	83.816
693	83.829
694	83.841
695	83.862
696	83.862
697	83.871
698	83.887
699	83.896
700	83.906
701	83.903
702	83.925
703	83.933
704	83.925
705	83.939
706	83.93
707	83.942
708	83.95
709	83.935
710	83.96
711	83.952
712	83.949
713	83.95
714	83.942
715	83.957
716	83.951
717	83.938
718	83.941
719	83.935
720	83.933
721	83.942
722	83.93
723	83.939
724	83.94
725	83.923
726	83.948
727	83.944
728	83.927
729	83.939
730	83.927
731	83.925
732	83.932
733	83.924
734	83.94
735	83.95
736	83.953
737	83.967
738	83.952
739	83.971
740	83.978
741	83.965
742	83.984
743	83.985
744	83.994
745	84.007
746	84.013
747	84.03
748	84.031
749	84.044
750	84.058
751	84.066
752	84.077
753	84.075
754	84.095
755	84.111
756	84.117
757	84.13
758	84.139
759	84.135
760	84.152
761	84.159
762	84.166
763	84.188
764	84.187
765	84.215
766	84.228
767	84.23
768	84.236
769	84.24
770	84.255
771	84.259
772	84.253
773	84.265
774	84.283
775	84.289
776	84.311
777	84.324
778	84.328
779	84.338
780	84.341
781	84.355
782	84.361
783	84.363
784	84.372
785	84.382
786	84.398
787	84.405
788	84.409
789	84.415
790	84.417
791	84.437
792	84.454
793	84.454
794	84.46
795	84.471
796	84.49
797	84.498
798	84.49
799	84.515
800	84.515
801	84.509
802	84.53
803	84.529
804	84.539
805	84.545
806	84.552
807	84.562
808	84.569
809	84.582
810	84.602
811	84.624
812	84.626
813	84.642
814	84.66
815	84.663
816	84.68
817	84.696
818	84.703
819	84.713
820	84.731
821	84.755
822	84.768
823	84.78
824	84.794
825	84.821
826	84.83
827	84.836
828	84.847
829	84.867
830	84.88
831	84.889
832	84.923
833	84.943
834	84.949
835	84.96
836	84.977
837	84.976
838	84.981
839	85.005
840	85.018
841	85.027
842	85.041
843	85.058
844	85.055
845	85.05
846	85.063
847	85.078
848	85.069
849	85.082
850	85.098
851	85.099
852	85.109
853	85.108
854	85.119
855	85.124
856	85.122
857	85.121
858	85.114
859	85.12
860	85.131
861	85.134
862	85.132
863	85.125
864	85.124
865	85.135
866	85.14
867	85.155
868	85.15
869	85.133
870	85.142
871	85.126
872	85.123
873	85.13
874	85.135
875	85.134
876	85.126
877	85.128
878	85.121
879	85.121
880	85.134
881	85.132
882	85.133
883	85.136
884	85.141
885	85.149
886	85.141
887	85.141
888	85.145
889	85.14
890	85.143
891	85.148
892	85.141
893	85.146
894	85.15
895	85.138
896	85.138
897	85.144
898	85.141
899	85.128
900	85.132
901	85.133
902	85.118
903	85.111
904	85.118
905	85.122
906	85.105
907	85.106
908	85.093
909	85.086
910	85.094
911	85.073
912	85.073
913	85.073
914	85.06
915	85.062
916	85.066
917	85.062
918	85.054
919	85.047
920	85.052
921	85.056
922	85.038
923	85.036
924	85.036
925	85.019
926	85.018
927	85.018
928	85.011
929	84.992
930	84.976
931	84.98
932	84.969
933	84.945
934	84.927
935	84.928
936	84.924
937	84.889
938	84.886
939	84.885
940	84.861
941	84.86
942	84.851
943	84.835
944	84.83
945	84.818
946	84.804
947	84.763
948	84.751
949	84.753
950	84.742
951	84.715
952	84.695
953	84.688
954	84.671
955	84.652
956	84.637
957	84.626
958	84.624
959	84.613
960	84.589
961	84.592
962	84.579
963	84.552
964	84.546
965	84.541
966	84.527
967	84.515
968	84.509
969	84.492
970	84.472
971	84.453
972	84.441
973	84.422
974	84.419
975	84.409
976	84.405
977	84.407
978	84.393
979	84.376
980	84.375
981	84.379
982	84.359
983	84.355
984	84.354
985	84.358
986	84.332
987	84.325
988	84.334
989	84.311
990	84.303
991	84.315
992	84.302
993	84.283
994	84.29
995	84.292
996	84.278
997	84.285
998	84.273
999	84.283
1000	84.301
1001	84.252
1002	84.259
1003	84.264
1004	84.24
1005	84.244
1006	84.243
1007	84.227
1008	84.22
1009	84.217
1010	84.204
1011	84.215
1012	84.221
1013	84.209
1014	84.187
1015	84.193
1016	84.196
1017	84.176
1018	84.172
1019	84.159
1020	84.146
1021	84.141
1022	84.139
1023	84.132
1024	84.126
1025	84.129
1026	84.129
1027	84.128
1028	84.125
1029	84.104
1030	84.091
1031	84.091
1032	84.084
1033	84.065
1034	84.051
1035	84.051
1036	84.043
1037	84.035
1038	84.046
1039	84.027
1040	84.011
1041	84.026
1042	84.016
1043	84.001
1044	84.001
1045	84.007
1046	83.995
1047	83.972
1048	83.984
1049	83.964
1050	83.955
1051	83.954
1052	83.939
1053	83.941
1054	83.93
1055	83.929
1056	83.924
1057	83.901
1058	83.897
1059	83.903
1060	83.902
1061	83.904
1062	83.893
1063	83.897
1064	83.908
1065	83.9
1066	83.88
1067	83.872
1068	83.867
1069	83.859
1070	83.864
1071	83.861
1072	83.858
1073	83.859
1074	83.845
1075	83.828
1076	83.835
1077	83.836
1078	83.814
1079	83.804
1080	83.809
1081	83.801
1082	83.79
1083	83.792
1084	83.777
1085	83.772
1086	83.77
1087	83.766
1088	83.768
1089	83.766
1090	83.754
1091	83.741
1092	83.755
1093	83.748
1094	83.732
1095	83.737
1096	83.719
1097	83.716
1098	83.719
1099	83.715
1100	83.719
1101	83.712
1102	83.706
1103	83.707
1104	83.693
1105	83.688
1106	83.698
1107	83.685
1108	83.684
1109	83.68
1110	83.674
1111	83.689
1112	83.682
1113	83.684
1114	83.679
1115	83.686
1116	83.698
1117	83.702
1118	83.701
1119	83.688
1120	83.692
1121	83.685
1122	83.676
1123	83.67
1124	83.666
1125	83.654
1126	83.663
1127	83.675
1128	83.666
1129	83.668
1130	83.673
1131	83.68
1132	83.678
1133	83.68
1134	83.677
1135	83.667
1136	83.68
1137	83.685
1138	83.674
1139	83.682
1140	83.676
1141	83.658
1142	83.677
1143	83.673
1144	83.661
1145	83.669
1146	83.676
1147	83.669
1148	83.653
1149	83.669
1150	83.671
1151	83.67
1152	83.673
1153	83.665
1154	83.657
1155	83.655
1156	83.661
1157	83.646
1158	83.652
1159	83.65
1160	83.645
1161	83.652
1162	83.644
1163	83.645
1164	83.641
1165	83.639
1166	83.638
1167	83.636
1168	83.635
1169	83.634
1170	83.639
1171	83.639
1172	83.64
1173	83.636
1174	83.634
1175	83.62
1176	83.623
1177	83.633
1178	83.613
1179	83.602
1180	83.597
1181	83.589
1182	83.591
1183	83.6
1184	83.597
1185	83.589
1186	83.58
1187	83.578
1188	83.579
1189	83.571
1190	83.583
1191	83.584
1192	83.569
1193	83.58
1194	83.573
1195	83.567
1196	83.57
1197	83.561
1198	83.563
1199	83.579
1200	83.557
1201	83.537
1202	83.545
1203	83.556
1204	83.549
1205	83.545
1206	83.557
1207	83.551
1208	83.534
1209	83.534
1210	83.53
1211	83.515
1212	83.508
1213	83.513
1214	83.51
1215	83.491
1216	83.486
1217	83.481
1218	83.473
1219	83.468
1220	83.465
1221	83.471
1222	83.471
1223	83.466
1224	83.466
1225	83.469
1226	83.453
1227	83.452
1228	83.47
1229	83.441
1230	83.425
1231	83.436
1232	83.423
1233	83.429
1234	83.417
1235	83.41
1236	83.41
1237	83.391
1238	83.396
1239	83.386
1240	83.374
1241	83.372
1242	83.358
1243	83.369
1244	83.372
1245	83.353
1246	83.357
1247	83.364
1248	83.358
1249	83.331
1250	83.33
1251	83.334
1252	83.338
1253	83.327
1254	83.297
1255	83.31
1256	83.309
1257	83.281
1258	83.295
1259	83.299
1260	83.285
1261	83.283
1262	83.281
1263	83.272
1264	83.266
1265	83.261
1266	83.261
1267	83.251
1268	83.238
1269	83.241
1270	83.239
1271	83.241
1272	83.236
1273	83.229
1274	83.215
1275	83.215
1276	83.213
1277	83.197
1278	83.193
1279	83.188
1280	83.196
1281	83.198
1282	83.18
1283	83.172
1284	83.182
1285	83.174
1286	83.158
1287	83.157
1288	83.142
1289	83.146
1290	83.142
1291	83.144
1292	83.147
1293	83.144
1294	83.146
1295	83.133
1296	83.127
1297	83.118
1298	83.111
1299	83.115
1300	83.108
1301	83.099
1302	83.105
1303	83.087
1304	83.077
1305	83.093
1306	83.086
1307	83.088
1308	83.088
1309	83.075
1310	83.066
1311	83.064
1312	83.076
1313	83.068
1314	83.062
1315	83.036
1316	83.038
1317	83.056
1318	83.042
1319	83.045
1320	83.028
1321	83.024
1322	83.032
1323	83.014
1324	83.031
1325	83.037
1326	83.029
1327	83.025
1328	83.016
1329	83.006
1330	83.005
1331	83.008
1332	83.009
1333	83.001
1334	82.979
1335	82.999
1336	83.002
1337	82.991
1338	82.993
1339	82.977
1340	82.968
1341	82.973
1342	82.981
1343	82.978
1344	82.977
1345	82.976
1346	82.964
1347	82.964
1348	82.963
1349	82.968
1350	82.955
1351	82.95
1352	82.951
1353	82.948
1354	82.937
1355	82.927
1356	82.932
1357	82.918
1358	82.92
1359	82.921
1360	82.931
1361	82.935
1362	82.932
1363	82.927
1364	82.94
1365	82.935
1366	82.927
1367	82.916
1368	82.895
1369	82.907
1370	82.908
1371	82.907
1372	82.902
1373	82.895
1374	82.888
1375	82.88
1376	82.908
1377	82.901
1378	82.873
1379	82.881
1380	82.892
1381	82.89
1382	82.87
1383	82.89
1384	82.882
1385	82.859
1386	82.867
1387	82.863
1388	82.865
1389	82.859
1390	82.858
1391	82.867
1392	82.849
1393	82.832
1394	82.837
1395	82.832
1396	82.834
1397	82.836
1398	82.823
1399	82.822
1400	82.826
1401	82.817
1402	82.825
1403	82.825
1404	82.812
1405	82.813
1406	82.81
1407	82.8
1408	82.807
1409	82.795
1410	82.795
1411	82.81
1412	82.788
1413	82.778
1414	82.772
1415	82.786
1416	82.803
1417	82.795
1418	82.783
1419	82.788
1420	82.786
1421	82.775
1422	82.775
1423	82.763
1424	82.773
1425	82.778
1426	82.778
1427	82.769
1428	82.756
1429	82.769
1430	82.782
1431	82.78
1432	82.772
1433	82.763
1434	82.787
1435	82.779
1436	82.777
1437	82.783
1438	82.757
1439	82.76
1440	82.749
1441	82.754
1442	82.785
1443	82.769
1444	82.754
1445	82.756
1446	82.746
1447	82.762
1448	82.777
1449	82.766
1450	82.767
1451	82.757
1452	82.749
1453	82.749
1454	82.748
1455	82.751
1456	82.744
1457	82.759
1458	82.756
1459	82.748
1460	82.769
1461	82.746
1462	82.748
1463	82.75
1464	82.742
1465	82.748
1466	82.746
1467	82.757
1468	82.745
1469	82.746
1470	82.754
1471	82.757
1472	82.756
1473	82.75
1474	82.755
1475	82.748
1476	82.749
1477	82.752
1478	82.744
1479	82.75
1480	82.763
1481	82.753
1482	82.725
1483	82.746
1484	82.751
1485	82.726
1486	82.737
1487	82.728
1488	82.726
1489	82.747
1490	82.748
1491	82.763
1492	82.76
1493	82.742
1494	82.743
1495	82.746
1496	82.758
1497	82.763
1498	82.752
1499	82.743
1500	82.73
1501	82.735
1502	82.76
1503	82.75
1504	82.73
1505	82.737
1506	82.743
1507	82.747
1508	82.74
1509	82.737
1510	82.732
1511	82.734
1512	82.754
1513	82.73
1514	82.724
1515	82.734
1516	82.741
1517	82.733
1518	82.728
1519	82.738
1520	82.734
1521	82.731
1522	82.737
1523	82.718
1524	82.708
1525	82.729
1526	82.72
1527	82.712
1528	82.708
1529	82.709
1530	82.723
1531	82.696
1532	82.704
1533	82.697
1534	82.679
1535	82.704
1536	82.701
1537	82.694
1538	82.691
1539	82.698
1540	82.706
1541	82.68
1542	82.674
1543	82.671
1544	82.656
1545	82.651
1546	82.655
1547	82.648
1548	82.633
1549	82.632
1550	82.639
1551	82.618
1552	82.606
1553	82.619
1554	82.592
1555	82.594
1556	82.613
1557	82.585
1558	82.567
1559	82.568
1560	82.559
1561	82.554
1562	82.549
1563	82.52
1564	82.518
1565	82.507
1566	82.484
1567	82.492
1568	82.481
1569	82.481
1570	82.467
1571	82.453
1572	82.449
1573	82.423
1574	82.416
1575	82.407
1576	82.408
1577	82.4
1578	82.383
1579	82.385
1580	82.37
1581	82.359
1582	82.344
1583	82.341
1584	82.337
1585	82.323
1586	82.332
1587	82.332
1588	82.312
1589	82.313
1590	82.288
1591	82.267
1592	82.27
1593	82.259
1594	82.252
1595	82.231
1596	82.219
1597	82.221
1598	82.209
1599	82.204
1600	82.2
1601	82.176
1602	82.142
1603	82.149
1604	82.16
1605	82.134
1606	82.123
1607	82.116
1608	82.1
1609	82.106
1610	82.091
1611	82.054
1612	82.037
1613	82.039
1614	82.02
1615	82.008
1616	81.99
1617	81.963
1618	81.955
1619	81.918
1620	81.912
1621	81.894
1622	81.857
1623	81.836
1624	81.823
1625	81.81
1626	81.776
1627	81.75
1628	81.742
1629	81.708
1630	81.657
1631	81.616
1632	81.589
1633	81.59
1634	81.56
1635	81.513
1636	81.465
1637	81.438
1638	81.405
1639	81.335
1640	81.305
1641	81.269
1642	81.212
1643	81.182
1644	81.153
1645	81.095
1646	81.035
1647	80.983
1648	80.949
1649	80.897
1650	80.835
1651	80.781
