Freq(Hz)	SPL(dB)
20	76.365
21	76.365
22	76.452
23	76.713
24	77.316
25	77.734
26	78.3
27	78.733
28	79.01
29	79.118
30	79.292
31	79.434
32	79.683
33	79.921
34	80.253
35	80.546
36	80.712
37	80.906
38	81.073
39	81.232
40	81.349
41	81.533
42	81.72
43	81.914
44	82.032
45	82.192
46	82.333
47	82.42
48	82.549
49	82.679
50	82.814
51	82.898
52	83.016
53	83.11
54	83.213
55	83.285
56	83.383
57	83.487
58	83.585
59	83.649
60	83.737
61	83.818
62	83.869
63	83.945
64	84.022
65	84.096
66	84.147
67	84.21
68	84.266
69	84.327
70	84.354
71	84.395
72	84.424
73	84.434
74	84.452
75	84.456
76	84.455
77	84.451
78	84.458
79	84.481
80	84.49
81	84.492
82	84.482
83	84.443
84	84.353
85	84.277
86	84.147
87	84.002
88	83.921
89	83.838
90	83.842
91	83.92
92	83.985
93	84.116
94	84.253
95	84.364
96	84.436
97	84.529
98	84.605
99	84.653
100	84.716
101	84.753
102	84.791
103	84.822
104	84.852
105	84.876
106	84.894
107	84.906
108	84.92
109	84.93
110	84.938
111	84.937
112	84.937
113	84.949
114	84.951
115	84.945
116	84.938
117	84.953
118	84.954
119	84.944
120	84.973
121	84.963
122	84.965
123	84.963
124	84.943
125	84.956
126	84.95
127	84.939
128	84.945
129	84.945
130	84.948
131	84.935
132	84.935
133	84.937
134	84.928
135	84.931
136	84.921
137	84.915
138	84.909
139	84.892
140	84.891
141	84.881
142	84.874
143	84.864
144	84.852
145	84.846
146	84.838
147	84.828
148	84.82
149	84.808
150	84.789
151	84.772
152	84.758
153	84.742
154	84.72
155	84.71
156	84.684
157	84.659
158	84.648
159	84.636
160	84.622
161	84.613
162	84.605
163	84.601
164	84.592
165	84.594
166	84.592
167	84.576
168	84.58
169	84.585
170	84.575
171	84.561
172	84.553
173	84.558
174	84.552
175	84.537
176	84.532
177	84.523
178	84.518
179	84.499
180	84.492
181	84.497
182	84.474
183	84.45
184	84.45
185	84.437
186	84.42
187	84.433
188	84.418
189	84.402
190	84.401
191	84.384
192	84.391
193	84.38
194	84.357
195	84.357
196	84.352
197	84.34
198	84.326
199	84.322
200	84.322
201	84.306
202	84.298
203	84.293
204	84.279
205	84.272
206	84.263
207	84.263
208	84.262
209	84.237
210	84.242
211	84.238
212	84.217
213	84.214
214	84.201
215	84.184
216	84.171
217	84.166
218	84.154
219	84.126
220	84.123
221	84.122
222	84.11
223	84.099
224	84.092
225	84.086
226	84.082
227	84.066
228	84.061
229	84.053
230	84.053
231	84.046
232	84.031
233	84.032
234	84.033
235	84.018
236	84.008
237	84.005
238	83.984
239	83.986
240	83.983
241	83.972
242	83.969
243	83.945
244	83.939
245	83.933
246	83.926
247	83.901
248	83.894
249	83.901
250	83.884
251	83.88
252	83.869
253	83.85
254	83.851
255	83.846
256	83.827
257	83.809
258	83.811
259	83.814
260	83.81
261	83.801
262	83.795
263	83.798
264	83.8
265	83.796
266	83.795
267	83.789
268	83.776
269	83.787
270	83.796
271	83.781
272	83.78
273	83.782
274	83.778
275	83.776
276	83.779
277	83.791
278	83.791
279	83.774
280	83.764
281	83.768
282	83.776
283	83.766
284	83.758
285	83.755
286	83.756
287	83.768
288	83.76
289	83.758
290	83.76
291	83.771
292	83.772
293	83.757
294	83.748
295	83.74
296	83.743
297	83.741
298	83.738
299	83.741
300	83.735
301	83.727
302	83.731
303	83.721
304	83.72
305	83.718
306	83.722
307	83.724
308	83.716
309	83.785
310	83.718
311	83.669
312	83.697
313	83.67
314	83.675
315	83.673
316	83.676
317	83.68
318	83.671
319	83.691
320	83.697
321	83.669
322	83.667
323	83.669
324	83.665
325	83.662
326	83.665
327	83.666
328	83.663
329	83.654
330	83.649
331	83.662
332	83.653
333	83.654
334	83.65
335	83.639
336	83.639
337	83.631
338	83.642
339	83.635
340	83.637
341	83.643
342	83.643
343	83.643
344	83.636
345	83.652
346	83.642
347	83.641
348	83.648
349	83.619
350	83.617
351	83.622
352	83.624
353	83.622
354	83.604
355	83.616
356	83.614
357	83.607
358	83.606
359	83.595
360	83.594
361	83.6
362	83.595
363	83.594
364	83.601
365	83.593
366	83.598
367	83.597
368	83.59
369	83.595
370	83.588
371	83.589
372	83.592
373	83.585
374	83.589
375	83.585
376	83.58
377	83.59
378	83.584
379	83.579
380	83.587
381	83.587
382	83.587
383	83.583
384	83.581
385	83.587
386	83.583
387	83.572
388	83.577
389	83.573
390	83.573
391	83.574
392	83.563
393	83.558
394	83.557
395	83.559
396	83.556
397	83.551
398	83.551
399	83.543
400	83.542
401	83.547
402	83.546
403	83.555
404	83.552
405	83.551
406	83.555
407	83.543
408	83.545
409	83.551
410	83.536
411	83.536
412	83.545
413	83.54
414	83.543
415	83.548
416	83.548
417	83.541
418	83.545
419	83.545
420	83.547
421	83.546
422	83.545
423	83.559
424	83.551
425	83.557
426	83.56
427	83.555
428	83.564
429	83.553
430	83.555
431	83.566
432	83.559
433	83.558
434	83.562
435	83.566
436	83.573
437	83.571
438	83.57
439	83.583
440	83.582
441	83.58
442	83.577
443	83.581
444	83.585
445	83.58
446	83.589
447	83.601
448	83.593
449	83.594
450	83.593
451	83.59
452	83.599
453	83.592
454	83.594
455	83.604
456	83.605
457	83.607
458	83.601
459	83.616
460	83.615
461	83.605
462	83.608
463	83.61
464	83.62
465	83.609
466	83.602
467	83.615
468	83.621
469	83.615
470	83.611
471	83.615
472	83.619
473	83.622
474	83.63
475	83.623
476	83.637
477	83.645
478	83.639
479	83.646
480	83.652
481	83.654
482	83.65
483	83.647
484	83.649
485	83.657
486	83.655
487	83.65
488	83.658
489	83.662
490	83.674
491	83.675
492	83.676
493	83.676
494	83.671
495	83.676
496	83.672
497	83.679
498	83.681
499	83.678
500	83.687
501	83.681
502	83.694
503	83.699
504	83.694
505	83.709
506	83.705
507	83.712
508	83.716
509	83.715
510	83.729
511	83.738
512	83.741
513	83.742
514	83.748
515	83.749
516	83.747
517	83.747
518	83.743
519	83.746
520	83.746
521	83.74
522	83.756
523	83.759
524	83.759
525	83.757
526	83.751
527	83.761
528	83.769
529	83.761
530	83.764
531	83.773
532	83.776
533	83.783
534	83.785
535	83.789
536	83.79
537	83.793
538	83.79
539	83.787
540	83.795
541	83.79
542	83.787
543	83.799
544	83.805
545	83.807
546	83.812
547	83.816
548	83.823
549	83.823
550	83.822
551	83.824
552	83.823
553	83.823
554	83.831
555	83.834
556	83.836
557	83.837
558	83.842
559	83.846
560	83.85
561	83.857
562	83.846
563	83.843
564	83.844
565	83.85
566	83.851
567	83.849
568	83.85
569	83.857
570	83.856
571	83.856
572	83.862
573	83.861
574	83.868
575	83.868
576	83.866
577	83.864
578	83.861
579	83.869
580	83.86
581	83.861
582	83.854
583	83.854
584	83.869
585	83.855
586	83.857
587	83.85
588	83.846
589	83.85
590	83.835
591	83.837
592	83.837
593	83.827
594	83.827
595	83.831
596	83.826
597	83.827
598	83.83
599	83.835
600	83.829
601	83.824
602	83.833
603	83.825
604	83.82
605	83.822
606	83.813
607	83.818
608	83.822
609	83.824
610	83.813
611	83.808
612	83.809
613	83.802
614	83.808
615	83.805
616	83.787
617	83.785
618	83.78
619	83.772
620	83.764
621	83.769
622	83.761
623	83.747
624	83.749
625	83.744
626	83.738
627	83.74
628	83.738
629	83.74
630	83.736
631	83.733
632	83.733
633	83.728
634	83.727
635	83.725
636	83.704
637	83.707
638	83.711
639	83.697
640	83.703
641	83.7
642	83.699
643	83.706
644	83.713
645	83.714
646	83.707
647	83.707
648	83.704
649	83.703
650	83.707
651	83.704
652	83.699
653	83.703
654	83.704
655	83.701
656	83.702
657	83.699
658	83.701
659	83.707
660	83.703
661	83.701
662	83.711
663	83.726
664	83.73
665	83.723
666	83.724
667	83.722
668	83.729
669	83.739
670	83.74
671	83.741
672	83.745
673	83.753
674	83.755
675	83.759
676	83.761
677	83.764
678	83.761
679	83.762
680	83.774
681	83.778
682	83.79
683	83.804
684	83.808
685	83.823
686	83.826
687	83.832
688	83.839
689	83.834
690	83.842
691	83.854
692	83.857
693	83.86
694	83.866
695	83.873
696	83.879
697	83.886
698	83.887
699	83.893
700	83.889
701	83.891
702	83.898
703	83.896
704	83.903
705	83.909
706	83.91
707	83.909
708	83.915
709	83.909
710	83.901
711	83.913
712	83.924
713	83.924
714	83.929
715	83.93
716	83.925
717	83.928
718	83.919
719	83.925
720	83.943
721	83.943
722	83.95
723	83.952
724	83.954
725	83.961
726	83.965
727	83.966
728	83.968
729	83.964
730	83.959
731	83.964
732	83.96
733	83.956
734	83.957
735	83.952
736	83.952
737	83.943
738	83.943
739	83.946
740	83.943
741	83.939
742	83.941
743	83.945
744	83.948
745	83.951
746	83.948
747	83.946
748	83.946
749	83.943
750	83.937
751	83.934
752	83.934
753	83.937
754	83.945
755	83.938
756	83.953
757	83.961
758	83.958
759	83.959
760	83.952
761	83.956
762	83.959
763	83.965
764	83.976
765	83.978
766	83.984
767	83.993
768	83.991
769	84
770	84.012
771	84.006
772	84.005
773	84.005
774	84.001
775	84.008
776	84.003
777	84.002
778	84.017
779	84.023
780	84.027
781	84.038
782	84.047
783	84.06
784	84.071
785	84.079
786	84.091
787	84.092
788	84.096
789	84.09
790	84.097
791	84.117
792	84.111
793	84.125
794	84.132
795	84.129
796	84.131
797	84.131
798	84.136
799	84.144
800	84.146
801	84.148
802	84.15
803	84.164
804	84.17
805	84.168
806	84.175
807	84.188
808	84.198
809	84.197
810	84.199
811	84.223
812	84.237
813	84.233
814	84.24
815	84.237
816	84.236
817	84.255
818	84.256
819	84.263
820	84.271
821	84.282
822	84.292
823	84.296
824	84.3
825	84.313
826	84.318
827	84.317
828	84.331
829	84.333
830	84.338
831	84.347
832	84.354
833	84.368
834	84.373
835	84.382
836	84.401
837	84.4
838	84.409
839	84.423
840	84.432
841	84.442
842	84.438
843	84.442
844	84.446
845	84.441
846	84.446
847	84.45
848	84.456
849	84.458
850	84.451
851	84.461
852	84.474
853	84.473
854	84.481
855	84.5
856	84.501
857	84.509
858	84.518
859	84.512
860	84.526
861	84.541
862	84.548
863	84.551
864	84.558
865	84.564
866	84.58
867	84.578
868	84.569
869	84.57
870	84.569
871	84.57
872	84.576
873	84.58
874	84.583
875	84.59
876	84.602
877	84.612
878	84.601
879	84.605
880	84.624
881	84.622
882	84.642
883	84.647
884	84.654
885	84.679
886	84.673
887	84.678
888	84.668
889	84.654
890	84.662
891	84.658
892	84.657
893	84.652
894	84.652
895	84.654
896	84.65
897	84.628
898	84.617
899	84.617
900	84.616
901	84.614
902	84.595
903	84.578
904	84.567
905	84.554
906	84.536
907	84.525
908	84.491
909	84.472
910	84.454
911	84.437
912	84.43
913	84.419
914	84.415
915	84.406
916	84.396
917	84.399
918	84.392
919	84.38
920	84.388
921	84.401
922	84.394
923	84.4
924	84.407
925	84.426
926	84.444
927	84.455
928	84.478
929	84.488
930	84.495
931	84.504
932	84.529
933	84.56
934	84.585
935	84.606
936	84.641
937	84.674
938	84.693
939	84.711
940	84.741
941	84.76
942	84.766
943	84.789
944	84.811
945	84.822
946	84.825
947	84.836
948	84.853
949	84.86
950	84.869
951	84.884
952	84.894
953	84.911
954	84.938
955	84.955
956	84.983
957	85.004
958	85.019
959	85.036
960	85.057
961	85.068
962	85.088
963	85.1
964	85.108
965	85.127
966	85.137
967	85.147
968	85.151
969	85.155
970	85.165
971	85.178
972	85.191
973	85.208
974	85.227
975	85.238
976	85.248
977	85.274
978	85.285
979	85.289
980	85.301
981	85.306
982	85.315
983	85.321
984	85.323
985	85.329
986	85.337
987	85.333
988	85.333
989	85.334
990	85.333
991	85.345
992	85.349
993	85.352
994	85.352
995	85.354
996	85.361
997	85.369
998	85.378
999	85.388
1000	85.41
1001	85.417
1002	85.412
1003	85.413
1004	85.418
1005	85.418
1006	85.427
1007	85.441
1008	85.445
1009	85.456
1010	85.479
1011	85.492
1012	85.499
1013	85.502
1014	85.513
1015	85.515
1016	85.513
1017	85.519
1018	85.531
1019	85.55
1020	85.556
1021	85.55
1022	85.555
1023	85.551
1024	85.548
1025	85.554
1026	85.552
1027	85.551
1028	85.556
1029	85.56
1030	85.569
1031	85.574
1032	85.572
1033	85.568
1034	85.563
1035	85.566
1036	85.57
1037	85.578
1038	85.607
1039	85.621
1040	85.639
1041	85.65
1042	85.66
1043	85.686
1044	85.693
1045	85.716
1046	85.729
1047	85.738
1048	85.752
1049	85.747
1050	85.737
1051	85.723
1052	85.706
1053	85.682
1054	85.673
1055	85.67
1056	85.662
1057	85.661
1058	85.669
1059	85.677
1060	85.67
1061	85.664
1062	85.662
1063	85.657
1064	85.664
1065	85.675
1066	85.669
1067	85.66
1068	85.663
1069	85.66
1070	85.648
1071	85.631
1072	85.632
1073	85.621
1074	85.608
1075	85.61
1076	85.605
1077	85.611
1078	85.61
1079	85.613
1080	85.622
1081	85.627
1082	85.626
1083	85.623
1084	85.621
1085	85.614
1086	85.614
1087	85.621
1088	85.622
1089	85.63
1090	85.647
1091	85.657
1092	85.67
1093	85.668
1094	85.675
1095	85.699
1096	85.706
1097	85.725
1098	85.739
1099	85.744
1100	85.748
1101	85.752
1102	85.755
1103	85.755
1104	85.754
1105	85.773
1106	85.775
1107	85.772
1108	85.789
1109	85.801
1110	85.819
1111	85.836
1112	85.864
1113	85.883
1114	85.907
1115	85.916
1116	85.925
1117	85.924
1118	85.909
1119	85.906
1120	85.9
1121	85.903
1122	85.912
1123	85.917
1124	85.933
1125	85.956
1126	85.98
1127	86.005
1128	86.012
1129	86.014
1130	86.032
1131	86.042
1132	86.05
1133	86.067
1134	86.08
1135	86.092
1136	86.095
1137	86.097
1138	86.098
1139	86.094
1140	86.096
1141	86.104
1142	86.111
1143	86.116
1144	86.14
1145	86.156
1146	86.155
1147	86.166
1148	86.173
1149	86.19
1150	86.204
1151	86.217
1152	86.231
1153	86.238
1154	86.24
1155	86.245
1156	86.251
1157	86.256
1158	86.253
1159	86.245
1160	86.257
1161	86.263
1162	86.269
1163	86.289
1164	86.321
1165	86.335
1166	86.368
1167	86.401
1168	86.416
1169	86.434
1170	86.453
1171	86.461
1172	86.471
1173	86.488
1174	86.514
1175	86.524
1176	86.521
1177	86.54
1178	86.554
1179	86.56
1180	86.57
1181	86.588
1182	86.604
1183	86.601
1184	86.605
1185	86.626
1186	86.643
1187	86.643
1188	86.648
1189	86.655
1190	86.64
1191	86.637
1192	86.631
1193	86.625
1194	86.627
1195	86.615
1196	86.61
1197	86.609
1198	86.595
1199	86.602
1200	86.628
1201	86.636
1202	86.653
1203	86.678
1204	86.684
1205	86.698
1206	86.703
1207	86.697
1208	86.685
1209	86.681
1210	86.678
1211	86.674
1212	86.686
1213	86.698
1214	86.717
1215	86.734
1216	86.747
1217	86.75
1218	86.753
1219	86.74
1220	86.739
1221	86.746
1222	86.751
1223	86.763
1224	86.77
1225	86.769
1226	86.775
1227	86.786
1228	86.785
1229	86.786
1230	86.789
1231	86.792
1232	86.798
1233	86.811
1234	86.83
1235	86.845
1236	86.854
1237	86.866
1238	86.882
1239	86.895
1240	86.906
1241	86.897
1242	86.894
1243	86.898
1244	86.918
1245	86.941
1246	86.978
1247	87.003
1248	87.03
1249	87.063
1250	87.073
1251	87.085
1252	87.1
1253	87.116
1254	87.123
1255	87.125
1256	87.13
1257	87.125
1258	87.122
1259	87.123
1260	87.135
1261	87.144
1262	87.156
1263	87.156
1264	87.147
1265	87.149
1266	87.152
1267	87.151
1268	87.142
1269	87.144
1270	87.155
1271	87.165
1272	87.166
1273	87.169
1274	87.176
1275	87.178
1276	87.177
1277	87.169
1278	87.157
1279	87.168
1280	87.182
1281	87.203
1282	87.227
1283	87.218
1284	87.215
1285	87.216
1286	87.206
1287	87.213
1288	87.207
1289	87.197
1290	87.19
1291	87.182
1292	87.193
1293	87.193
1294	87.184
1295	87.189
1296	87.187
1297	87.172
1298	87.173
1299	87.187
1300	87.205
1301	87.23
1302	87.242
1303	87.256
1304	87.277
1305	87.281
1306	87.29
1307	87.309
1308	87.327
1309	87.338
1310	87.335
1311	87.339
1312	87.34
1313	87.345
1314	87.363
1315	87.363
1316	87.381
1317	87.391
1318	87.421
1319	87.458
1320	87.471
1321	87.49
1322	87.504
1323	87.51
1324	87.504
1325	87.503
1326	87.497
1327	87.487
1328	87.489
1329	87.488
1330	87.502
1331	87.528
1332	87.544
1333	87.565
1334	87.581
1335	87.601
1336	87.61
1337	87.606
1338	87.604
1339	87.602
1340	87.603
1341	87.608
1342	87.608
1343	87.613
1344	87.617
1345	87.598
1346	87.585
1347	87.578
1348	87.573
1349	87.576
1350	87.571
1351	87.581
1352	87.582
1353	87.57
1354	87.57
1355	87.56
1356	87.56
1357	87.551
1358	87.557
1359	87.573
1360	87.574
1361	87.587
1362	87.597
1363	87.615
1364	87.614
1365	87.612
1366	87.61
1367	87.598
1368	87.589
1369	87.584
1370	87.579
1371	87.601
1372	87.609
1373	87.612
1374	87.627
1375	87.622
1376	87.632
1377	87.628
1378	87.621
1379	87.621
1380	87.612
1381	87.617
1382	87.617
1383	87.622
1384	87.629
1385	87.625
1386	87.644
1387	87.684
1388	87.716
1389	87.758
1390	87.774
1391	87.78
1392	87.786
1393	87.801
1394	87.822
1395	87.842
1396	87.874
1397	87.9
1398	87.915
1399	87.922
1400	87.937
1401	87.923
1402	87.918
1403	87.923
1404	87.93
1405	87.942
1406	87.947
1407	87.959
1408	87.962
1409	87.973
1410	87.979
1411	87.974
1412	87.957
1413	87.933
1414	87.924
1415	87.895
1416	87.887
1417	87.884
1418	87.868
1419	87.874
1420	87.878
1421	87.882
1422	87.888
1423	87.885
1424	87.864
1425	87.848
1426	87.827
1427	87.809
1428	87.793
1429	87.785
1430	87.799
1431	87.808
1432	87.821
1433	87.858
1434	87.89
1435	87.933
1436	87.951
1437	87.969
1438	87.987
1439	87.999
1440	87.994
1441	87.978
1442	87.988
1443	87.987
1444	87.976
1445	87.98
1446	87.98
1447	87.979
1448	87.973
1449	87.974
1450	87.986
1451	88.007
1452	88.046
1453	88.075
1454	88.1
1455	88.11
1456	88.117
1457	88.123
1458	88.135
1459	88.142
1460	88.142
1461	88.138
1462	88.125
1463	88.123
1464	88.113
1465	88.105
1466	88.103
1467	88.11
1468	88.124
1469	88.132
1470	88.164
1471	88.178
1472	88.186
1473	88.185
1474	88.176
1475	88.188
1476	88.18
1477	88.183
1478	88.189
1479	88.187
1480	88.23
1481	88.264
1482	88.312
1483	88.365
1484	88.4
1485	88.437
1486	88.453
1487	88.457
1488	88.447
1489	88.422
1490	88.392
1491	88.379
1492	88.388
1493	88.399
1494	88.41
1495	88.414
1496	88.405
1497	88.401
1498	88.384
1499	88.371
1500	88.351
1501	88.322
1502	88.295
1503	88.285
1504	88.28
1505	88.29
1506	88.31
1507	88.31
1508	88.312
1509	88.333
1510	88.348
1511	88.385
1512	88.435
1513	88.471
1514	88.494
1515	88.523
1516	88.539
1517	88.557
1518	88.565
1519	88.572
1520	88.583
1521	88.592
1522	88.596
1523	88.597
1524	88.602
1525	88.605
1526	88.602
1527	88.615
1528	88.641
1529	88.658
1530	88.693
1531	88.713
1532	88.71
1533	88.7
1534	88.7
1535	88.692
1536	88.687
1537	88.703
1538	88.716
1539	88.762
1540	88.794
1541	88.822
1542	88.839
1543	88.827
1544	88.819
1545	88.811
1546	88.819
1547	88.842
1548	88.889
1549	88.93
1550	88.954
1551	88.963
1552	88.968
1553	88.966
1554	88.957
1555	88.95
1556	88.938
1557	88.921
1558	88.909
1559	88.896
1560	88.881
1561	88.887
1562	88.897
1563	88.93
1564	88.973
1565	89.004
1566	89.017
1567	89.029
1568	89.03
1569	89.039
1570	89.045
1571	89.065
1572	89.108
1573	89.12
1574	89.134
1575	89.139
1576	89.107
1577	89.091
1578	89.08
1579	89.079
1580	89.064
1581	89.059
1582	89.075
1583	89.076
1584	89.075
1585	89.082
1586	89.1
1587	89.106
1588	89.102
1589	89.11
1590	89.117
1591	89.114
1592	89.102
1593	89.073
1594	89.03
1595	88.979
1596	88.964
1597	88.953
1598	88.941
1599	88.941
1600	88.945
1601	88.96
1602	88.995
1603	89.014
1604	89.033
1605	89.047
1606	89.022
1607	88.99
1608	88.944
1609	88.899
1610	88.876
1611	88.87
1612	88.873
1613	88.897
1614	88.91
1615	88.917
1616	88.907
1617	88.872
1618	88.853
1619	88.838
1620	88.824
1621	88.831
1622	88.837
1623	88.846
1624	88.871
1625	88.888
1626	88.904
1627	88.908
1628	88.912
1629	88.916
1630	88.916
1631	88.918
1632	88.936
1633	88.942
1634	88.937
1635	88.957
1636	88.994
1637	89.018
1638	89.056
1639	89.082
1640	89.09
1641	89.078
1642	89.054
1643	89.04
1644	89.036
1645	89.039
1646	89.046
1647	89.051
1648	89.046
1649	89.039
1650	89.03
1651	89.019
1652	89.017
