Freq(Hz)	SPL(dB)
20	71.376
21	71.774
22	72.581
23	73.234
24	73.306
25	73.293
26	73.346
27	73.472
28	73.84
29	74.189
30	74.735
31	75.169
32	75.431
33	75.584
34	75.736
35	75.89
36	76.025
37	76.253
38	76.58
39	76.865
40	77.019
41	77.262
42	77.417
43	77.585
44	77.733
45	77.899
46	78.128
47	78.256
48	78.395
49	78.668
50	78.738
51	78.842
52	79.086
53	79.223
54	79.458
55	79.566
56	79.67
57	79.824
58	79.954
59	80.025
60	80.176
61	80.316
62	80.397
63	80.53
64	80.602
65	80.687
66	80.766
67	80.849
68	80.938
69	81.004
70	81.058
71	81.159
72	81.209
73	81.251
74	81.322
75	81.345
76	81.357
77	81.383
78	81.428
79	81.455
80	81.505
81	81.524
82	81.562
83	81.624
84	81.629
85	81.645
86	81.683
87	81.701
88	81.716
89	81.761
90	81.811
91	81.839
92	81.863
93	81.912
94	81.959
95	81.994
96	82.015
97	82.04
98	82.061
99	82.078
100	82.1
101	82.128
102	82.172
103	82.191
104	82.205
105	82.228
106	82.24
107	82.248
108	82.276
109	82.299
110	82.31
111	82.319
112	82.349
113	82.348
114	82.357
115	82.38
116	82.367
117	82.399
118	82.418
119	82.447
120	82.428
121	82.42
122	82.469
123	82.48
124	82.462
125	82.479
126	82.495
127	82.498
128	82.492
129	82.512
130	82.542
131	82.538
132	82.569
133	82.567
134	82.578
135	82.587
136	82.586
137	82.613
138	82.621
139	82.606
140	82.619
141	82.644
142	82.649
143	82.656
144	82.652
145	82.653
146	82.663
147	82.654
148	82.657
149	82.666
150	82.658
151	82.659
152	82.673
153	82.67
154	82.664
155	82.65
156	82.656
157	82.659
158	82.619
159	82.633
160	82.632
161	82.613
162	82.634
163	82.628
164	82.625
165	82.607
166	82.593
167	82.602
168	82.596
169	82.593
170	82.598
171	82.593
172	82.609
173	82.618
174	82.603
175	82.618
176	82.634
177	82.631
178	82.641
179	82.621
180	82.625
181	82.637
182	82.625
183	82.634
184	82.632
185	82.628
186	82.633
187	82.626
188	82.63
189	82.621
190	82.616
191	82.629
192	82.617
193	82.617
194	82.621
195	82.613
196	82.614
197	82.609
198	82.617
199	82.629
200	82.626
201	82.612
202	82.622
203	82.621
204	82.643
205	82.651
206	82.637
207	82.647
208	82.643
209	82.641
210	82.636
211	82.647
212	82.667
213	82.648
214	82.664
215	82.687
216	82.677
217	82.671
218	82.663
219	82.673
220	82.662
221	82.646
222	82.638
223	82.634
224	82.634
225	82.639
226	82.639
227	82.624
228	82.62
229	82.614
230	82.608
231	82.607
232	82.601
233	82.594
234	82.585
235	82.591
236	82.575
237	82.575
238	82.587
239	82.574
240	82.566
241	82.551
242	82.558
243	82.564
244	82.555
245	82.538
246	82.531
247	82.545
248	82.543
249	82.536
250	82.534
251	82.552
252	82.575
253	82.559
254	82.531
255	82.541
256	82.544
257	82.522
258	82.518
259	82.53
260	82.535
261	82.525
262	82.536
263	82.534
264	82.529
265	82.539
266	82.549
267	82.549
268	82.529
269	82.535
270	82.543
271	82.535
272	82.535
273	82.538
274	82.528
275	82.537
276	82.561
277	82.55
278	82.557
279	82.572
280	82.574
281	82.578
282	82.576
283	82.588
284	82.577
285	82.575
286	82.587
287	82.595
288	82.605
289	82.595
290	82.591
291	82.601
292	82.604
293	82.596
294	82.602
295	82.611
296	82.595
297	82.597
298	82.608
299	82.603
300	82.613
301	82.616
302	82.614
303	82.617
304	82.605
305	82.611
306	82.634
307	82.641
308	82.642
309	82.634
310	82.662
311	82.659
312	82.648
313	82.672
314	82.681
315	82.682
316	82.685
317	82.705
318	82.688
319	82.681
320	82.701
321	82.681
322	82.682
323	82.698
324	82.694
325	82.669
326	82.679
327	82.689
328	82.686
329	82.696
330	82.69
331	82.685
332	82.715
333	82.713
334	82.698
335	82.716
336	82.729
337	82.745
338	82.732
339	82.736
340	82.758
341	82.744
342	82.754
343	82.768
344	82.767
345	82.757
346	82.736
347	82.738
348	82.747
349	82.745
350	82.732
351	82.741
352	82.742
353	82.753
354	82.744
355	82.745
356	82.755
357	82.744
358	82.732
359	82.745
360	82.753
361	82.742
362	82.749
363	82.73
364	82.74
365	82.761
366	82.744
367	82.75
368	82.745
369	82.758
370	82.77
371	82.762
372	82.762
373	82.772
374	82.779
375	82.781
376	82.771
377	82.781
378	82.782
379	82.774
380	82.793
381	82.783
382	82.781
383	82.79
384	82.792
385	82.791
386	82.791
387	82.796
388	82.756
389	82.756
390	82.772
391	82.766
392	82.763
393	82.753
394	82.757
395	82.76
396	82.753
397	82.753
398	82.755
399	82.746
400	82.743
401	82.744
402	82.732
403	82.713
404	82.709
405	82.701
406	82.671
407	82.667
408	82.67
409	82.657
410	82.657
411	82.642
412	82.627
413	82.641
414	82.648
415	82.664
416	82.679
417	82.682
418	82.702
419	82.712
420	82.726
421	82.738
422	82.73
423	82.751
424	82.764
425	82.763
426	82.78
427	82.781
428	82.786
429	82.8
430	82.797
431	82.806
432	82.81
433	82.81
434	82.818
435	82.822
436	82.822
437	82.829
438	82.845
439	82.849
440	82.842
441	82.843
442	82.853
443	82.851
444	82.846
445	82.838
446	82.835
447	82.845
448	82.85
449	82.848
450	82.844
451	82.862
452	82.864
453	82.877
454	82.881
455	82.873
456	82.886
457	82.901
458	82.904
459	82.901
460	82.899
461	82.906
462	82.899
463	82.894
464	82.903
465	82.899
466	82.916
467	82.913
468	82.923
469	82.937
470	82.933
471	82.956
472	82.956
473	82.951
474	82.965
475	82.968
476	82.97
477	82.982
478	82.989
479	82.99
480	82.992
481	83.008
482	83.013
483	83.016
484	83.011
485	83.022
486	83.034
487	83.033
488	83.043
489	83.047
490	83.038
491	83.062
492	83.073
493	83.072
494	83.077
495	83.069
496	83.059
497	83.055
498	83.059
499	83.082
500	83.086
501	83.077
502	83.081
503	83.063
504	83.057
505	83.067
506	83.057
507	83.05
508	83.057
509	83.056
510	83.065
511	83.072
512	83.07
513	83.074
514	83.077
515	83.081
516	83.093
517	83.086
518	83.091
519	83.097
520	83.09
521	83.112
522	83.12
523	83.13
524	83.137
525	83.137
526	83.147
527	83.158
528	83.156
529	83.148
530	83.146
531	83.148
532	83.142
533	83.144
534	83.146
535	83.158
536	83.181
537	83.16
538	83.159
539	83.173
540	83.154
541	83.147
542	83.154
543	83.152
544	83.153
545	83.157
546	83.162
547	83.155
548	83.151
549	83.162
550	83.15
551	83.148
552	83.153
553	83.139
554	83.163
555	83.169
556	83.162
557	83.174
558	83.188
559	83.195
560	83.191
561	83.183
562	83.174
563	83.165
564	83.162
565	83.156
566	83.144
567	83.145
568	83.134
569	83.129
570	83.129
571	83.128
572	83.129
573	83.128
574	83.123
575	83.12
576	83.114
577	83.12
578	83.119
579	83.114
580	83.117
581	83.113
582	83.114
583	83.11
584	83.095
585	83.076
586	83.075
587	83.071
588	83.073
589	83.079
590	83.085
591	83.106
592	83.095
593	83.099
594	83.104
595	83.082
596	83.096
597	83.085
598	83.087
599	83.106
600	83.097
601	83.107
602	83.105
603	83.11
604	83.121
605	83.123
606	83.115
607	83.113
608	83.122
609	83.126
610	83.131
611	83.139
612	83.144
613	83.155
614	83.146
615	83.141
616	83.14
617	83.133
618	83.141
619	83.142
620	83.151
621	83.157
622	83.152
623	83.155
624	83.158
625	83.157
626	83.17
627	83.178
628	83.168
629	83.176
630	83.186
631	83.192
632	83.203
633	83.202
634	83.207
635	83.209
636	83.211
637	83.203
638	83.209
639	83.214
640	83.205
641	83.222
642	83.237
643	83.236
644	83.237
645	83.242
646	83.245
647	83.255
648	83.268
649	83.263
650	83.265
651	83.28
652	83.293
653	83.299
654	83.297
655	83.289
656	83.292
657	83.306
658	83.31
659	83.325
660	83.334
661	83.343
662	83.331
663	83.318
664	83.325
665	83.334
666	83.325
667	83.33
668	83.34
669	83.32
670	83.33
671	83.339
672	83.347
673	83.339
674	83.33
675	83.339
676	83.339
677	83.337
678	83.341
679	83.338
680	83.345
681	83.349
682	83.348
683	83.356
684	83.376
685	83.395
686	83.392
687	83.387
688	83.403
689	83.401
690	83.398
691	83.411
692	83.413
693	83.422
694	83.434
695	83.417
696	83.411
697	83.411
698	83.419
699	83.423
700	83.426
701	83.426
702	83.422
703	83.435
704	83.438
705	83.442
706	83.455
707	83.458
708	83.463
709	83.464
710	83.476
711	83.481
712	83.48
713	83.484
714	83.49
715	83.498
716	83.503
717	83.524
718	83.519
719	83.517
720	83.535
721	83.548
722	83.56
723	83.561
724	83.568
725	83.575
726	83.582
727	83.582
728	83.594
729	83.595
730	83.599
731	83.62
732	83.612
733	83.611
734	83.616
735	83.601
736	83.614
737	83.616
738	83.624
739	83.625
740	83.619
741	83.636
742	83.641
743	83.638
744	83.648
745	83.66
746	83.655
747	83.662
748	83.661
749	83.663
750	83.671
751	83.671
752	83.682
753	83.685
754	83.697
755	83.71
756	83.713
757	83.721
758	83.719
759	83.709
760	83.716
761	83.74
762	83.743
763	83.745
764	83.759
765	83.766
766	83.774
767	83.777
768	83.778
769	83.79
770	83.799
771	83.794
772	83.782
773	83.789
774	83.785
775	83.785
776	83.805
777	83.818
778	83.832
779	83.847
780	83.855
781	83.864
782	83.875
783	83.871
784	83.871
785	83.892
786	83.901
787	83.899
788	83.908
789	83.93
790	83.933
791	83.934
792	83.94
793	83.949
794	83.953
795	83.96
796	83.967
797	83.968
798	83.991
799	83.991
800	83.977
801	83.972
802	83.973
803	83.991
804	83.982
805	83.98
806	83.991
807	83.999
808	84.003
809	84.015
810	84.021
811	84.017
812	84.02
813	84.026
814	84.034
815	84.035
816	84.037
817	84.05
818	84.057
819	84.064
820	84.074
821	84.082
822	84.102
823	84.115
824	84.121
825	84.123
826	84.132
827	84.14
828	84.143
829	84.164
830	84.182
831	84.191
832	84.191
833	84.192
834	84.196
835	84.187
836	84.183
837	84.194
838	84.206
839	84.201
840	84.219
841	84.257
842	84.26
843	84.27
844	84.293
845	84.316
846	84.327
847	84.329
848	84.346
849	84.35
850	84.361
851	84.387
852	84.391
853	84.386
854	84.39
855	84.4
856	84.415
857	84.427
858	84.415
859	84.441
860	84.459
861	84.454
862	84.487
863	84.512
864	84.524
865	84.557
866	84.563
867	84.576
868	84.592
869	84.594
870	84.618
871	84.634
872	84.638
873	84.651
874	84.676
875	84.692
876	84.698
877	84.728
878	84.727
879	84.732
880	84.762
881	84.771
882	84.785
883	84.793
884	84.813
885	84.805
886	84.822
887	84.849
888	84.859
889	84.875
890	84.88
891	84.896
892	84.92
893	84.938
894	84.959
895	84.974
896	84.979
897	84.997
898	85.001
899	85.003
900	85.001
901	84.998
902	84.993
903	84.981
904	84.972
905	84.953
906	84.935
907	84.925
908	84.904
909	84.899
910	84.88
911	84.842
912	84.804
913	84.772
914	84.702
915	84.621
916	84.565
917	84.482
918	84.372
919	84.276
920	84.211
921	84.085
922	83.969
923	83.82
924	83.74
925	83.641
926	83.539
927	83.476
928	83.385
929	83.33
930	83.271
931	83.249
932	83.242
933	83.234
934	83.224
935	83.226
936	83.262
937	83.305
938	83.324
939	83.353
940	83.408
941	83.472
942	83.507
943	83.563
944	83.628
945	83.69
946	83.722
947	83.776
948	83.819
949	83.837
950	83.87
951	83.927
952	83.973
953	83.985
954	84.024
955	84.075
956	84.111
957	84.139
958	84.163
959	84.209
960	84.229
961	84.236
962	84.266
963	84.308
964	84.337
965	84.357
966	84.368
967	84.389
968	84.406
969	84.431
970	84.435
971	84.457
972	84.466
973	84.46
974	84.493
975	84.502
976	84.512
977	84.534
978	84.537
979	84.536
980	84.544
981	84.564
982	84.56
983	84.568
984	84.604
985	84.615
986	84.621
987	84.639
988	84.654
989	84.673
990	84.69
991	84.684
992	84.712
993	84.741
994	84.747
995	84.765
996	84.756
997	84.777
998	84.77
999	84.786
1000	84.817
1001	84.77
1002	84.781
1003	84.802
1004	84.802
1005	84.81
1006	84.801
1007	84.81
1008	84.839
1009	84.853
1010	84.869
1011	84.881
1012	84.88
1013	84.874
1014	84.887
1015	84.892
1016	84.897
1017	84.911
1018	84.892
1019	84.916
1020	84.92
1021	84.925
1022	84.947
1023	84.943
1024	84.951
1025	84.976
1026	84.991
1027	84.98
1028	84.98
1029	84.986
1030	84.984
1031	84.986
1032	84.989
1033	84.988
1034	84.987
1035	84.997
1036	85.005
1037	85.025
1038	85.043
1039	85.043
1040	85.064
1041	85.076
1042	85.075
1043	85.096
1044	85.1
1045	85.109
1046	85.125
1047	85.13
1048	85.131
1049	85.121
1050	85.119
1051	85.12
1052	85.12
1053	85.132
1054	85.128
1055	85.115
1056	85.135
1057	85.145
1058	85.13
1059	85.117
1060	85.087
1061	85.06
1062	85.039
1063	85.027
1064	85.013
1065	84.999
1066	85.013
1067	85.028
1068	85.026
1069	85.049
1070	85.054
1071	85.065
1072	85.09
1073	85.116
1074	85.114
1075	85.12
1076	85.12
1077	85.11
1078	85.106
1079	85.1
1080	85.093
1081	85.091
1082	85.099
1083	85.096
1084	85.099
1085	85.114
1086	85.136
1087	85.156
1088	85.173
1089	85.2
1090	85.223
1091	85.229
1092	85.257
1093	85.272
1094	85.286
1095	85.317
1096	85.326
1097	85.336
1098	85.339
1099	85.337
1100	85.34
1101	85.35
1102	85.356
1103	85.379
1104	85.385
1105	85.403
1106	85.417
1107	85.409
1108	85.412
1109	85.412
1110	85.418
1111	85.414
1112	85.402
1113	85.417
1114	85.442
1115	85.445
1116	85.45
1117	85.456
1118	85.459
1119	85.45
1120	85.449
1121	85.472
1122	85.451
1123	85.422
1124	85.417
1125	85.389
1126	85.374
1127	85.352
1128	85.334
1129	85.34
1130	85.337
1131	85.335
1132	85.342
1133	85.342
1134	85.354
1135	85.364
1136	85.372
1137	85.377
1138	85.358
1139	85.353
1140	85.358
1141	85.359
1142	85.349
1143	85.328
1144	85.321
1145	85.309
1146	85.295
1147	85.323
1148	85.344
1149	85.362
1150	85.376
1151	85.395
1152	85.413
1153	85.42
1154	85.428
1155	85.43
1156	85.446
1157	85.434
1158	85.425
1159	85.432
1160	85.41
1161	85.39
1162	85.371
1163	85.364
1164	85.363
1165	85.382
1166	85.412
1167	85.443
1168	85.484
1169	85.499
1170	85.515
1171	85.501
1172	85.5
1173	85.531
1174	85.555
1175	85.567
1176	85.572
1177	85.586
1178	85.593
1179	85.567
1180	85.559
1181	85.551
1182	85.547
1183	85.547
1184	85.552
1185	85.582
1186	85.581
1187	85.573
1188	85.563
1189	85.549
1190	85.531
1191	85.521
1192	85.5
1193	85.461
1194	85.418
1195	85.391
1196	85.361
1197	85.329
1198	85.335
1199	85.358
1200	85.347
1201	85.348
1202	85.339
1203	85.324
1204	85.308
1205	85.29
1206	85.292
1207	85.305
1208	85.306
1209	85.327
1210	85.345
1211	85.367
1212	85.379
1213	85.392
1214	85.434
1215	85.445
1216	85.434
1217	85.43
1218	85.412
1219	85.391
1220	85.372
1221	85.357
1222	85.335
1223	85.296
1224	85.265
1225	85.222
1226	85.204
1227	85.202
1228	85.204
1229	85.213
1230	85.215
1231	85.206
1232	85.212
1233	85.21
1234	85.203
1235	85.209
1236	85.208
1237	85.228
1238	85.247
1239	85.268
1240	85.305
1241	85.338
1242	85.37
1243	85.382
1244	85.409
1245	85.408
1246	85.428
1247	85.441
1248	85.413
1249	85.404
1250	85.397
1251	85.381
1252	85.359
1253	85.325
1254	85.308
1255	85.283
1256	85.278
1257	85.272
1258	85.265
1259	85.256
1260	85.265
1261	85.294
1262	85.313
1263	85.351
1264	85.367
1265	85.377
1266	85.39
1267	85.377
1268	85.386
1269	85.374
1270	85.339
1271	85.305
1272	85.261
1273	85.25
1274	85.219
1275	85.186
1276	85.171
1277	85.134
1278	85.133
1279	85.141
1280	85.149
1281	85.164
1282	85.172
1283	85.199
1284	85.222
1285	85.257
1286	85.255
1287	85.237
1288	85.245
1289	85.261
1290	85.279
1291	85.295
1292	85.31
1293	85.321
1294	85.347
1295	85.368
1296	85.389
1297	85.433
1298	85.449
1299	85.443
1300	85.433
1301	85.424
1302	85.42
1303	85.413
1304	85.421
1305	85.402
1306	85.391
1307	85.395
1308	85.413
1309	85.432
1310	85.453
1311	85.51
1312	85.556
1313	85.575
1314	85.574
1315	85.567
1316	85.558
1317	85.536
1318	85.527
1319	85.516
1320	85.534
1321	85.55
1322	85.542
1323	85.543
1324	85.573
1325	85.581
1326	85.595
1327	85.635
1328	85.637
1329	85.655
1330	85.648
1331	85.633
1332	85.635
1333	85.618
1334	85.629
1335	85.64
1336	85.647
1337	85.667
1338	85.687
1339	85.697
1340	85.713
1341	85.712
1342	85.704
1343	85.704
1344	85.708
1345	85.713
1346	85.713
1347	85.702
1348	85.69
1349	85.699
1350	85.694
1351	85.697
1352	85.709
1353	85.718
1354	85.728
1355	85.752
1356	85.754
1357	85.758
1358	85.779
1359	85.796
1360	85.819
1361	85.846
1362	85.869
1363	85.877
1364	85.891
1365	85.911
1366	85.943
1367	85.99
1368	85.999
1369	85.992
1370	85.985
1371	85.974
1372	85.956
1373	85.935
1374	85.925
1375	85.93
1376	85.938
1377	85.944
1378	85.946
1379	85.948
1380	85.939
1381	85.919
1382	85.912
1383	85.925
1384	85.941
1385	85.959
1386	85.993
1387	86.006
1388	86.014
1389	86.049
1390	86.047
1391	86.052
1392	86.048
1393	85.999
1394	85.985
1395	85.977
1396	85.944
1397	85.916
1398	85.888
1399	85.88
1400	85.894
1401	85.913
1402	85.929
1403	85.949
1404	85.982
1405	85.992
1406	86.002
1407	86.018
1408	85.998
1409	85.987
1410	85.99
1411	85.991
1412	85.992
1413	86.023
1414	86.05
1415	86.081
1416	86.104
1417	86.123
1418	86.159
1419	86.175
1420	86.173
1421	86.171
1422	86.17
1423	86.173
1424	86.171
1425	86.178
1426	86.213
1427	86.233
1428	86.27
1429	86.307
1430	86.325
1431	86.336
1432	86.36
1433	86.359
1434	86.357
1435	86.368
1436	86.363
1437	86.391
1438	86.433
1439	86.466
1440	86.483
1441	86.488
1442	86.492
1443	86.488
1444	86.487
1445	86.5
1446	86.508
1447	86.521
1448	86.514
1449	86.51
1450	86.504
1451	86.476
1452	86.452
1453	86.412
1454	86.358
1455	86.346
1456	86.331
1457	86.331
1458	86.344
1459	86.367
1460	86.402
1461	86.398
1462	86.404
1463	86.431
1464	86.417
1465	86.409
1466	86.398
1467	86.371
1468	86.372
1469	86.374
1470	86.389
1471	86.393
1472	86.36
1473	86.347
1474	86.323
1475	86.309
1476	86.301
1477	86.297
1478	86.314
1479	86.302
1480	86.291
1481	86.283
1482	86.288
1483	86.333
1484	86.346
1485	86.364
1486	86.38
1487	86.365
1488	86.356
1489	86.35
1490	86.342
1491	86.319
1492	86.304
1493	86.295
1494	86.263
1495	86.247
1496	86.268
1497	86.283
1498	86.292
1499	86.288
1500	86.244
1501	86.193
1502	86.13
1503	86.086
1504	86.061
1505	86.084
1506	86.141
1507	86.19
1508	86.259
1509	86.329
1510	86.372
1511	86.398
1512	86.414
1513	86.413
1514	86.406
1515	86.416
1516	86.396
1517	86.376
1518	86.356
1519	86.319
1520	86.299
1521	86.268
1522	86.237
1523	86.24
1524	86.242
1525	86.253
1526	86.268
1527	86.286
1528	86.283
1529	86.29
1530	86.321
1531	86.328
1532	86.351
1533	86.367
1534	86.381
1535	86.38
1536	86.374
1537	86.36
1538	86.334
1539	86.308
1540	86.296
1541	86.288
1542	86.277
1543	86.282
1544	86.292
1545	86.316
1546	86.342
1547	86.353
1548	86.356
1549	86.357
1550	86.352
1551	86.34
1552	86.331
1553	86.316
1554	86.293
1555	86.269
1556	86.231
1557	86.202
1558	86.196
1559	86.203
1560	86.224
1561	86.247
1562	86.255
1563	86.25
1564	86.234
1565	86.25
1566	86.279
1567	86.322
1568	86.349
1569	86.364
1570	86.372
1571	86.384
1572	86.387
1573	86.39
1574	86.404
1575	86.432
1576	86.476
1577	86.502
1578	86.53
1579	86.552
1580	86.589
1581	86.603
1582	86.605
1583	86.614
1584	86.59
1585	86.577
1586	86.568
1587	86.543
1588	86.534
1589	86.515
1590	86.513
1591	86.55
1592	86.581
1593	86.632
1594	86.671
1595	86.697
1596	86.685
1597	86.651
1598	86.63
1599	86.602
1600	86.559
1601	86.525
1602	86.489
1603	86.475
1604	86.476
1605	86.488
1606	86.519
1607	86.563
1608	86.608
1609	86.661
1610	86.72
1611	86.737
1612	86.764
1613	86.758
1614	86.749
1615	86.763
1616	86.795
1617	86.823
1618	86.852
1619	86.907
1620	86.948
1621	86.992
1622	87.007
1623	87.014
1624	87.01
1625	87.001
1626	86.99
1627	86.982
1628	86.988
1629	86.996
1630	87.016
1631	87.065
1632	87.107
1633	87.111
1634	87.094
1635	87.087
1636	87.062
1637	87.046
1638	87.039
1639	87.034
1640	87.042
1641	87.048
1642	87.059
1643	87.102
1644	87.131
1645	87.16
1646	87.172
1647	87.155
1648	87.135
1649	87.109
1650	87.093
