Freq(Hz)	SPL(dB)
20	74.753
21	74.707
22	74.744
23	74.918
24	75.562
25	76.051
26	76.636
27	77.095
28	77.366
29	77.475
30	77.613
31	77.721
32	78.008
33	78.238
34	78.577
35	78.871
36	79.004
37	79.201
38	79.409
39	79.583
40	79.71
41	79.892
42	80.077
43	80.277
44	80.399
45	80.561
46	80.735
47	80.834
48	80.977
49	81.138
50	81.246
51	81.35
52	81.495
53	81.579
54	81.697
55	81.77
56	81.879
57	82.002
58	82.112
59	82.185
60	82.297
61	82.376
62	82.43
63	82.526
64	82.606
65	82.686
66	82.736
67	82.804
68	82.878
69	82.92
70	82.942
71	82.972
72	82.993
73	83.015
74	83.022
75	83.05
76	83.102
77	83.138
78	83.197
79	83.226
80	83.223
81	83.201
82	83.148
83	83.103
84	83.08
85	83.094
86	83.169
87	83.263
88	83.326
89	83.405
90	83.448
91	83.473
92	83.48
93	83.469
94	83.43
95	83.362
96	83.326
97	83.316
98	83.353
99	83.403
100	83.495
101	83.605
102	83.705
103	83.758
104	83.838
105	83.909
106	83.963
107	83.994
108	84.04
109	84.086
110	84.107
111	84.129
112	84.163
113	84.184
114	84.204
115	84.233
116	84.247
117	84.271
118	84.278
119	84.285
120	84.319
121	84.29
122	84.297
123	84.327
124	84.303
125	84.315
126	84.339
127	84.337
128	84.369
129	84.379
130	84.374
131	84.388
132	84.387
133	84.392
134	84.395
135	84.399
136	84.4
137	84.402
138	84.422
139	84.427
140	84.423
141	84.423
142	84.43
143	84.429
144	84.43
145	84.428
146	84.431
147	84.434
148	84.431
149	84.438
150	84.435
151	84.432
152	84.432
153	84.432
154	84.427
155	84.418
156	84.413
157	84.412
158	84.408
159	84.401
160	84.399
161	84.392
162	84.388
163	84.392
164	84.385
165	84.38
166	84.371
167	84.372
168	84.376
169	84.365
170	84.369
171	84.353
172	84.354
173	84.359
174	84.34
175	84.349
176	84.34
177	84.325
178	84.337
179	84.32
180	84.313
181	84.298
182	84.282
183	84.292
184	84.264
185	84.273
186	84.286
187	84.266
188	84.272
189	84.253
190	84.246
191	84.241
192	84.223
193	84.229
194	84.21
195	84.213
196	84.213
197	84.187
198	84.185
199	84.169
200	84.159
201	84.156
202	84.143
203	84.139
204	84.139
205	84.134
206	84.131
207	84.118
208	84.102
209	84.093
210	84.086
211	84.084
212	84.072
213	84.058
214	84.053
215	84.059
216	84.053
217	84.034
218	84.023
219	84.009
220	84.001
221	83.997
222	83.996
223	83.983
224	83.977
225	83.972
226	83.959
227	83.957
228	83.947
229	83.932
230	83.925
231	83.913
232	83.898
233	83.893
234	83.883
235	83.872
236	83.873
237	83.868
238	83.852
239	83.842
240	83.835
241	83.824
242	83.816
243	83.807
244	83.798
245	83.789
246	83.77
247	83.771
248	83.775
249	83.77
250	83.758
251	83.732
252	83.744
253	83.746
254	83.718
255	83.72
256	83.727
257	83.726
258	83.719
259	83.704
260	83.697
261	83.712
262	83.703
263	83.695
264	83.698
265	83.676
266	83.673
267	83.688
268	83.665
269	83.668
270	83.674
271	83.668
272	83.667
273	83.68
274	83.678
275	83.667
276	83.673
277	83.67
278	83.669
279	83.69
280	83.668
281	83.658
282	83.671
283	83.666
284	83.664
285	83.654
286	83.657
287	83.648
288	83.64
289	83.655
290	83.657
291	83.649
292	83.65
293	83.643
294	83.659
295	83.652
296	83.646
297	83.66
298	83.659
299	83.668
300	83.666
301	83.662
302	83.654
303	83.65
304	83.659
305	83.657
306	83.661
307	83.642
308	83.625
309	83.693
310	83.684
311	83.62
312	83.609
313	83.642
314	83.61
315	83.617
316	83.621
317	83.628
318	83.645
319	83.631
320	83.631
321	83.628
322	83.617
323	83.615
324	83.603
325	83.614
326	83.618
327	83.607
328	83.614
329	83.602
330	83.592
331	83.597
332	83.598
333	83.6
334	83.6
335	83.604
336	83.61
337	83.598
338	83.593
339	83.593
340	83.591
341	83.596
342	83.583
343	83.576
344	83.576
345	83.585
346	83.582
347	83.575
348	83.587
349	83.581
350	83.575
351	83.571
352	83.574
353	83.562
354	83.554
355	83.575
356	83.569
357	83.567
358	83.562
359	83.555
360	83.55
361	83.556
362	83.568
363	83.558
364	83.555
365	83.555
366	83.56
367	83.562
368	83.539
369	83.545
370	83.555
371	83.556
372	83.546
373	83.542
374	83.549
375	83.549
376	83.546
377	83.541
378	83.539
379	83.536
380	83.526
381	83.538
382	83.542
383	83.529
384	83.528
385	83.539
386	83.533
387	83.526
388	83.539
389	83.536
390	83.525
391	83.521
392	83.53
393	83.519
394	83.51
395	83.513
396	83.508
397	83.516
398	83.501
399	83.494
400	83.491
401	83.48
402	83.484
403	83.481
404	83.487
405	83.49
406	83.488
407	83.495
408	83.493
409	83.486
410	83.494
411	83.49
412	83.486
413	83.492
414	83.486
415	83.491
416	83.488
417	83.494
418	83.493
419	83.48
420	83.49
421	83.485
422	83.485
423	83.492
424	83.484
425	83.506
426	83.505
427	83.495
428	83.499
429	83.49
430	83.497
431	83.507
432	83.497
433	83.5
434	83.502
435	83.503
436	83.511
437	83.517
438	83.512
439	83.506
440	83.495
441	83.49
442	83.497
443	83.496
444	83.494
445	83.498
446	83.505
447	83.506
448	83.512
449	83.506
450	83.516
451	83.516
452	83.502
453	83.521
454	83.522
455	83.518
456	83.523
457	83.523
458	83.528
459	83.538
460	83.54
461	83.532
462	83.537
463	83.536
464	83.53
465	83.541
466	83.531
467	83.538
468	83.55
469	83.548
470	83.552
471	83.54
472	83.549
473	83.57
474	83.567
475	83.577
476	83.572
477	83.563
478	83.569
479	83.573
480	83.584
481	83.603
482	83.597
483	83.588
484	83.603
485	83.594
486	83.596
487	83.605
488	83.611
489	83.614
490	83.609
491	83.619
492	83.624
493	83.622
494	83.634
495	83.636
496	83.63
497	83.632
498	83.621
499	83.635
500	83.639
501	83.631
502	83.641
503	83.641
504	83.641
505	83.636
506	83.644
507	83.642
508	83.639
509	83.658
510	83.658
511	83.659
512	83.665
513	83.662
514	83.663
515	83.654
516	83.635
517	83.639
518	83.646
519	83.644
520	83.647
521	83.644
522	83.637
523	83.643
524	83.645
525	83.632
526	83.63
527	83.641
528	83.635
529	83.636
530	83.634
531	83.623
532	83.624
533	83.625
534	83.628
535	83.626
536	83.631
537	83.63
538	83.629
539	83.627
540	83.629
541	83.633
542	83.637
543	83.652
544	83.646
545	83.651
546	83.666
547	83.662
548	83.668
549	83.667
550	83.667
551	83.673
552	83.669
553	83.669
554	83.672
555	83.681
556	83.688
557	83.698
558	83.696
559	83.698
560	83.705
561	83.71
562	83.713
563	83.706
564	83.71
565	83.727
566	83.717
567	83.715
568	83.722
569	83.723
570	83.743
571	83.748
572	83.745
573	83.75
574	83.746
575	83.751
576	83.755
577	83.754
578	83.761
579	83.771
580	83.775
581	83.775
582	83.775
583	83.781
584	83.788
585	83.782
586	83.791
587	83.802
588	83.789
589	83.787
590	83.782
591	83.78
592	83.788
593	83.785
594	83.781
595	83.772
596	83.775
597	83.784
598	83.785
599	83.796
600	83.8
601	83.805
602	83.811
603	83.812
604	83.812
605	83.8
606	83.802
607	83.805
608	83.811
609	83.827
610	83.832
611	83.837
612	83.834
613	83.832
614	83.841
615	83.849
616	83.856
617	83.847
618	83.848
619	83.857
620	83.85
621	83.838
622	83.847
623	83.843
624	83.83
625	83.836
626	83.842
627	83.839
628	83.835
629	83.846
630	83.854
631	83.861
632	83.85
633	83.852
634	83.862
635	83.86
636	83.856
637	83.862
638	83.87
639	83.866
640	83.871
641	83.881
642	83.883
643	83.888
644	83.894
645	83.901
646	83.9
647	83.889
648	83.902
649	83.912
650	83.915
651	83.919
652	83.922
653	83.929
654	83.934
655	83.925
656	83.931
657	83.927
658	83.929
659	83.928
660	83.921
661	83.942
662	83.945
663	83.965
664	83.969
665	83.956
666	83.97
667	83.968
668	83.962
669	83.963
670	83.965
671	83.974
672	83.978
673	83.987
674	83.994
675	83.995
676	83.995
677	83.991
678	83.998
679	84.002
680	84.009
681	84.015
682	84.013
683	84.019
684	84.03
685	84.024
686	84.03
687	84.041
688	84.021
689	84.035
690	84.042
691	84.034
692	84.047
693	84.05
694	84.051
695	84.056
696	84.048
697	84.045
698	84.048
699	84.037
700	84.035
701	84.043
702	84.043
703	84.05
704	84.037
705	84.037
706	84.045
707	84.033
708	84.036
709	84.034
710	84.022
711	84.021
712	84.016
713	84.026
714	84.035
715	84.029
716	84.034
717	84.027
718	84.03
719	84.045
720	84.041
721	84.042
722	84.039
723	84.034
724	84.05
725	84.055
726	84.057
727	84.059
728	84.062
729	84.067
730	84.056
731	84.056
732	84.052
733	84.059
734	84.063
735	84.052
736	84.059
737	84.044
738	84.042
739	84.052
740	84.054
741	84.046
742	84.046
743	84.057
744	84.053
745	84.057
746	84.056
747	84.06
748	84.068
749	84.052
750	84.05
751	84.057
752	84.038
753	84.041
754	84.04
755	84.041
756	84.054
757	84.057
758	84.061
759	84.057
760	84.058
761	84.061
762	84.067
763	84.073
764	84.069
765	84.07
766	84.083
767	84.091
768	84.086
769	84.09
770	84.097
771	84.095
772	84.103
773	84.094
774	84.088
775	84.093
776	84.091
777	84.085
778	84.087
779	84.089
780	84.095
781	84.106
782	84.122
783	84.134
784	84.136
785	84.136
786	84.138
787	84.143
788	84.144
789	84.145
790	84.153
791	84.147
792	84.148
793	84.152
794	84.148
795	84.165
796	84.162
797	84.155
798	84.167
799	84.175
800	84.184
801	84.183
802	84.185
803	84.191
804	84.191
805	84.192
806	84.2
807	84.196
808	84.195
809	84.211
810	84.221
811	84.229
812	84.236
813	84.236
814	84.24
815	84.24
816	84.242
817	84.243
818	84.25
819	84.262
820	84.267
821	84.282
822	84.285
823	84.29
824	84.313
825	84.318
826	84.318
827	84.315
828	84.315
829	84.328
830	84.338
831	84.341
832	84.349
833	84.354
834	84.36
835	84.375
836	84.386
837	84.391
838	84.404
839	84.417
840	84.427
841	84.433
842	84.442
843	84.452
844	84.436
845	84.449
846	84.459
847	84.455
848	84.452
849	84.455
850	84.464
851	84.465
852	84.472
853	84.479
854	84.49
855	84.504
856	84.517
857	84.528
858	84.532
859	84.533
860	84.536
861	84.54
862	84.555
863	84.546
864	84.548
865	84.568
866	84.562
867	84.57
868	84.568
869	84.546
870	84.537
871	84.532
872	84.521
873	84.516
874	84.515
875	84.505
876	84.499
877	84.492
878	84.485
879	84.47
880	84.45
881	84.441
882	84.419
883	84.416
884	84.41
885	84.386
886	84.361
887	84.341
888	84.316
889	84.29
890	84.264
891	84.228
892	84.198
893	84.157
894	84.128
895	84.097
896	84.072
897	84.049
898	84.031
899	84.003
900	83.985
901	83.977
902	83.956
903	83.937
904	83.932
905	83.917
906	83.907
907	83.897
908	83.89
909	83.884
910	83.876
911	83.898
912	83.906
913	83.92
914	83.944
915	83.945
916	83.948
917	83.969
918	83.979
919	83.98
920	83.995
921	84.016
922	84.031
923	84.038
924	84.039
925	84.06
926	84.071
927	84.071
928	84.092
929	84.101
930	84.1
931	84.114
932	84.14
933	84.163
934	84.184
935	84.195
936	84.226
937	84.243
938	84.248
939	84.272
940	84.278
941	84.3
942	84.316
943	84.328
944	84.343
945	84.351
946	84.358
947	84.364
948	84.373
949	84.381
950	84.385
951	84.398
952	84.41
953	84.419
954	84.429
955	84.449
956	84.479
957	84.491
958	84.502
959	84.522
960	84.541
961	84.544
962	84.564
963	84.577
964	84.586
965	84.604
966	84.601
967	84.615
968	84.62
969	84.616
970	84.622
971	84.631
972	84.636
973	84.649
974	84.666
975	84.688
976	84.703
977	84.718
978	84.725
979	84.729
980	84.736
981	84.746
982	84.758
983	84.754
984	84.751
985	84.768
986	84.773
987	84.767
988	84.777
989	84.79
990	84.793
991	84.8
992	84.797
993	84.806
994	84.803
995	84.808
996	84.809
997	84.807
998	84.829
999	84.821
1000	84.835
1001	84.86
1002	84.849
1003	84.853
1004	84.855
1005	84.85
1006	84.859
1007	84.869
1008	84.869
1009	84.871
1010	84.896
1011	84.907
1012	84.908
1013	84.918
1014	84.92
1015	84.936
1016	84.938
1017	84.947
1018	84.963
1019	84.985
1020	85.001
1021	84.993
1022	84.998
1023	84.994
1024	84.995
1025	85.013
1026	85.003
1027	84.988
1028	84.999
1029	85.003
1030	85.005
1031	85.02
1032	85.016
1033	85.024
1034	85.021
1035	85.02
1036	85.042
1037	85.054
1038	85.081
1039	85.094
1040	85.106
1041	85.122
1042	85.134
1043	85.142
1044	85.16
1045	85.187
1046	85.195
1047	85.219
1048	85.238
1049	85.25
1050	85.264
1051	85.272
1052	85.261
1053	85.259
1054	85.258
1055	85.255
1056	85.264
1057	85.27
1058	85.281
1059	85.283
1060	85.292
1061	85.298
1062	85.292
1063	85.297
1064	85.304
1065	85.32
1066	85.336
1067	85.336
1068	85.345
1069	85.352
1070	85.36
1071	85.369
1072	85.358
1073	85.36
1074	85.355
1075	85.361
1076	85.368
1077	85.351
1078	85.354
1079	85.348
1080	85.353
1081	85.371
1082	85.382
1083	85.391
1084	85.408
1085	85.413
1086	85.405
1087	85.409
1088	85.412
1089	85.417
1090	85.423
1091	85.428
1092	85.438
1093	85.439
1094	85.45
1095	85.469
1096	85.485
1097	85.5
1098	85.508
1099	85.52
1100	85.532
1101	85.547
1102	85.537
1103	85.54
1104	85.555
1105	85.562
1106	85.561
1107	85.561
1108	85.583
1109	85.587
1110	85.602
1111	85.624
1112	85.651
1113	85.67
1114	85.684
1115	85.694
1116	85.694
1117	85.686
1118	85.679
1119	85.679
1120	85.674
1121	85.664
1122	85.668
1123	85.67
1124	85.674
1125	85.692
1126	85.703
1127	85.723
1128	85.734
1129	85.746
1130	85.762
1131	85.783
1132	85.803
1133	85.829
1134	85.86
1135	85.878
1136	85.881
1137	85.888
1138	85.899
1139	85.887
1140	85.895
1141	85.911
1142	85.906
1143	85.907
1144	85.904
1145	85.918
1146	85.914
1147	85.9
1148	85.912
1149	85.914
1150	85.926
1151	85.953
1152	85.957
1153	85.975
1154	85.98
1155	85.972
1156	85.98
1157	85.994
1158	85.993
1159	85.986
1160	85.987
1161	85.989
1162	85.998
1163	86.019
1164	86.024
1165	86.03
1166	86.06
1167	86.084
1168	86.099
1169	86.113
1170	86.123
1171	86.139
1172	86.15
1173	86.168
1174	86.197
1175	86.223
1176	86.243
1177	86.264
1178	86.285
1179	86.302
1180	86.315
1181	86.325
1182	86.332
1183	86.347
1184	86.348
1185	86.361
1186	86.376
1187	86.382
1188	86.396
1189	86.394
1190	86.391
1191	86.394
1192	86.408
1193	86.408
1194	86.399
1195	86.398
1196	86.378
1197	86.365
1198	86.361
1199	86.362
1200	86.361
1201	86.368
1202	86.385
1203	86.401
1204	86.421
1205	86.439
1206	86.442
1207	86.435
1208	86.416
1209	86.407
1210	86.4
1211	86.38
1212	86.393
1213	86.413
1214	86.434
1215	86.465
1216	86.481
1217	86.482
1218	86.481
1219	86.47
1220	86.465
1221	86.469
1222	86.474
1223	86.476
1224	86.482
1225	86.489
1226	86.497
1227	86.496
1228	86.487
1229	86.471
1230	86.448
1231	86.436
1232	86.426
1233	86.415
1234	86.422
1235	86.439
1236	86.454
1237	86.475
1238	86.513
1239	86.54
1240	86.564
1241	86.574
1242	86.576
1243	86.581
1244	86.596
1245	86.603
1246	86.635
1247	86.662
1248	86.69
1249	86.728
1250	86.743
1251	86.748
1252	86.761
1253	86.772
1254	86.775
1255	86.788
1256	86.795
1257	86.789
1258	86.796
1259	86.818
1260	86.823
1261	86.848
1262	86.861
1263	86.863
1264	86.866
1265	86.864
1266	86.868
1267	86.864
1268	86.862
1269	86.857
1270	86.85
1271	86.864
1272	86.867
1273	86.872
1274	86.873
1275	86.882
1276	86.89
1277	86.882
1278	86.89
1279	86.913
1280	86.928
1281	86.957
1282	86.961
1283	86.974
1284	86.982
1285	86.981
1286	86.982
1287	86.98
1288	86.975
1289	86.959
1290	86.949
1291	86.947
1292	86.96
1293	86.97
1294	86.975
1295	86.977
1296	86.989
1297	86.997
1298	86.992
1299	87
1300	87.014
1301	87.017
1302	87.016
1303	87.022
1304	87.024
1305	87.023
1306	87.021
1307	87.028
1308	87.032
1309	87.041
1310	87.05
1311	87.049
1312	87.068
1313	87.082
1314	87.093
1315	87.12
1316	87.129
1317	87.13
1318	87.142
1319	87.164
1320	87.187
1321	87.198
1322	87.212
1323	87.214
1324	87.217
1325	87.223
1326	87.231
1327	87.246
1328	87.252
1329	87.255
1330	87.28
1331	87.316
1332	87.338
1333	87.358
1334	87.37
1335	87.38
1336	87.383
1337	87.375
1338	87.364
1339	87.366
1340	87.361
1341	87.366
1342	87.379
1343	87.382
1344	87.393
1345	87.397
1346	87.412
1347	87.421
1348	87.42
1349	87.411
1350	87.41
1351	87.409
1352	87.395
1353	87.378
1354	87.375
1355	87.383
1356	87.385
1357	87.399
1358	87.415
1359	87.419
1360	87.436
1361	87.452
1362	87.449
1363	87.451
1364	87.448
1365	87.443
1366	87.439
1367	87.445
1368	87.435
1369	87.425
1370	87.42
1371	87.423
1372	87.44
1373	87.445
1374	87.46
1375	87.476
1376	87.476
1377	87.478
1378	87.475
1379	87.465
1380	87.45
1381	87.44
1382	87.443
1383	87.439
1384	87.444
1385	87.435
1386	87.438
1387	87.452
1388	87.455
1389	87.481
1390	87.5
1391	87.519
1392	87.558
1393	87.578
1394	87.609
1395	87.628
1396	87.658
1397	87.692
1398	87.707
1399	87.721
1400	87.749
1401	87.762
1402	87.769
1403	87.775
1404	87.781
1405	87.791
1406	87.795
1407	87.804
1408	87.816
1409	87.813
1410	87.818
1411	87.819
1412	87.793
1413	87.772
1414	87.752
1415	87.735
1416	87.73
1417	87.717
1418	87.717
1419	87.728
1420	87.734
1421	87.743
1422	87.753
1423	87.754
1424	87.74
1425	87.72
1426	87.691
1427	87.662
1428	87.634
1429	87.617
1430	87.599
1431	87.592
1432	87.59
1433	87.599
1434	87.632
1435	87.676
1436	87.703
1437	87.737
1438	87.742
1439	87.737
1440	87.721
1441	87.691
1442	87.688
1443	87.68
1444	87.657
1445	87.642
1446	87.623
1447	87.618
1448	87.607
1449	87.593
1450	87.608
1451	87.625
1452	87.668
1453	87.697
1454	87.724
1455	87.733
1456	87.723
1457	87.731
1458	87.727
1459	87.71
1460	87.705
1461	87.696
1462	87.687
1463	87.678
1464	87.671
1465	87.674
1466	87.686
1467	87.7
1468	87.715
1469	87.724
1470	87.749
1471	87.773
1472	87.771
1473	87.777
1474	87.783
1475	87.791
1476	87.801
1477	87.797
1478	87.796
1479	87.791
1480	87.807
1481	87.837
1482	87.893
1483	87.953
1484	87.976
1485	88
1486	88.017
1487	87.991
1488	87.973
1489	87.935
1490	87.897
1491	87.873
1492	87.864
1493	87.88
1494	87.886
1495	87.893
1496	87.912
1497	87.904
1498	87.893
1499	87.881
1500	87.841
1501	87.807
1502	87.77
1503	87.753
1504	87.733
1505	87.696
1506	87.695
1507	87.702
1508	87.696
1509	87.706
1510	87.726
1511	87.767
1512	87.813
1513	87.845
1514	87.867
1515	87.894
1516	87.908
1517	87.922
1518	87.935
1519	87.95
1520	87.957
1521	87.96
1522	87.964
1523	87.959
1524	87.952
1525	87.955
1526	87.964
1527	87.965
1528	87.986
1529	87.999
1530	88.008
1531	88.024
1532	88.022
1533	88.026
1534	88.028
1535	88.032
1536	88.047
1537	88.066
1538	88.098
1539	88.139
1540	88.169
1541	88.205
1542	88.214
1543	88.222
1544	88.213
1545	88.203
1546	88.197
1547	88.202
1548	88.242
1549	88.283
1550	88.313
1551	88.32
1552	88.322
1553	88.314
1554	88.297
1555	88.293
1556	88.273
1557	88.247
1558	88.236
1559	88.227
1560	88.223
1561	88.241
1562	88.26
1563	88.296
1564	88.327
1565	88.354
1566	88.362
1567	88.372
1568	88.397
1569	88.407
1570	88.417
1571	88.448
1572	88.471
1573	88.478
1574	88.496
1575	88.486
1576	88.453
1577	88.434
1578	88.399
1579	88.384
1580	88.384
1581	88.391
1582	88.415
1583	88.43
1584	88.441
1585	88.45
1586	88.467
1587	88.469
1588	88.463
1589	88.469
1590	88.47
1591	88.469
1592	88.472
1593	88.458
1594	88.428
1595	88.401
1596	88.383
1597	88.368
1598	88.37
1599	88.373
1600	88.38
1601	88.396
1602	88.43
1603	88.451
1604	88.475
1605	88.493
1606	88.473
1607	88.449
1608	88.407
1609	88.364
1610	88.35
1611	88.344
1612	88.334
1613	88.352
1614	88.363
1615	88.361
1616	88.365
1617	88.341
1618	88.324
1619	88.316
1620	88.327
1621	88.356
1622	88.358
1623	88.365
1624	88.377
1625	88.381
1626	88.387
1627	88.39
1628	88.392
1629	88.404
1630	88.421
1631	88.439
1632	88.47
1633	88.484
1634	88.514
1635	88.549
1636	88.577
1637	88.588
1638	88.612
1639	88.645
1640	88.65
1641	88.645
1642	88.637
1643	88.619
1644	88.613
1645	88.614
1646	88.633
1647	88.629
1648	88.619
1649	88.62
1650	88.608
1651	88.611
1652	88.626
