Freq(Hz) SPL(dB)
15	78.751
16	78.907
17	79.372
18	79.844
19	80.588
20	81.17
21	81.576
22	82.273
23	82.772
24	83.178
25	83.464
26	83.925
27	84.355
28	84.852
29	85.123
30	85.445
31	85.871
32	86.133
33	86.282
34	86.592
35	86.877
36	87.069
37	87.373
38	87.626
39	87.796
40	87.933
41	88.095
42	88.234
43	88.385
44	88.42
45	88.524
46	88.698
47	88.823
48	88.935
49	89.005
50	89.116
51	89.106
52	89.204
53	89.316
54	89.25
55	89.237
56	89.234
57	89.29
58	89.303
59	89.313
60	89.33
61	89.29
62	89.272
63	89.209
64	89.209
65	89.091
66	89.023
67	89.066
68	88.896
69	88.812
70	88.783
71	88.618
72	88.509
73	88.413
74	88.279
75	88.143
76	88.035
77	88.007
78	87.88
79	87.79
80	87.749
81	87.664
82	87.586
83	87.575
84	87.541
85	87.504
86	87.476
87	87.478
88	87.478
89	87.489
90	87.492
91	87.514
92	87.509
93	87.528
94	87.555
95	87.559
96	87.579
97	87.563
98	87.607
99	87.648
100	87.608
101	87.61
102	87.612
103	87.591
104	87.578
105	87.54
106	87.546
107	87.539
108	87.523
109	87.519
110	87.518
111	87.519
112	87.505
113	87.518
114	87.506
115	87.48
116	87.477
117	87.485
118	87.469
119	87.426
120	87.428
121	87.421
122	87.416
123	87.416
124	87.367
125	87.357
126	87.366
127	87.316
128	87.313
129	87.315
130	87.349
131	87.271
132	87.233
133	87.259
134	87.25
135	87.211
136	87.139
137	87.135
138	87.096
139	87.083
140	87.08
141	87.061
142	87.042
143	86.982
144	86.982
145	86.991
146	86.96
147	86.948
148	86.94
149	86.904
150	86.882
151	86.866
152	86.837
153	86.792
154	86.778
155	86.763
156	86.68
157	86.695
158	86.644
159	86.605
160	86.576
161	86.487
162	86.469
163	86.424
164	86.39
165	86.331
166	86.271
167	86.256
168	86.247
169	86.208
170	86.16
171	86.112
172	86.039
173	85.985
174	85.988
175	85.938
176	85.863
177	85.848
178	85.801
179	85.783
180	85.777
181	85.73
182	85.721
183	85.699
184	85.67
185	85.662
186	85.618
187	85.598
188	85.564
189	85.51
190	85.473
191	85.5
192	85.455
193	85.38
194	85.357
195	85.296
196	85.273
197	85.21
198	85.173
199	85.101
200	85.08
201	84.974
202	84.912
203	84.874
204	84.773
205	84.755
206	84.603
207	84.59
208	84.534
209	84.41
210	84.453
211	84.404
212	84.38
213	84.422
214	84.446
215	84.538
216	84.684
217	84.955
218	85.117
219	85.456
220	85.854
221	86.231
222	86.492
223	86.804
224	87.153
225	87.347
226	87.418
227	87.607
228	87.691
229	87.7
230	87.72
231	87.733
232	87.693
233	87.644
234	87.613
235	87.545
236	87.521
237	87.502
238	87.405
239	87.313
240	87.277
241	87.266
242	87.183
243	87.119
244	87.122
245	87.054
246	86.972
247	86.984
248	86.932
249	86.839
250	86.802
251	86.736
252	86.717
253	86.66
254	86.62
255	86.599
256	86.532
257	86.464
258	86.381
259	86.337
260	86.286
261	86.204
262	86.131
263	86.093
264	85.984
265	85.824
266	85.763
267	85.689
268	85.57
269	85.549
270	85.529
271	85.496
272	85.562
273	85.532
274	85.462
275	85.589
276	85.602
277	85.506
278	85.536
279	85.541
280	85.555
281	85.55
282	85.552
283	85.521
284	85.52
285	85.519
286	85.474
287	85.481
288	85.456
289	85.45
290	85.378
291	85.416
292	85.459
293	85.332
294	85.36
295	85.398
296	85.329
297	85.347
298	85.35
299	85.3
300	85.31
301	85.27
302	85.266
303	85.205
304	85.22
305	85.237
306	85.177
307	85.207
308	85.152
309	85.118
310	85.156
311	85.142
312	85.097
313	85.062
314	85.039
315	85.052
316	85.032
317	84.998
318	85.003
319	84.959
320	84.96
321	84.927
322	84.872
323	84.844
324	84.814
325	84.745
326	84.715
327	84.649
328	84.542
329	84.512
330	84.472
331	84.353
332	84.227
333	84.163
334	84.062
335	83.9
336	83.761
337	83.646
338	83.461
339	83.334
340	83.169
341	83.037
342	82.88
343	82.761
344	82.661
345	82.492
346	82.331
347	82.169
348	82.073
349	81.941
350	81.801
351	81.665
352	81.587
353	81.52
354	81.482
355	81.355
356	81.321
357	81.311
358	81.194
359	81.156
360	81.17
361	81.067
362	81.065
363	81.079
364	81.021
365	80.961
366	80.888
367	80.939
368	80.99
369	80.957
370	80.894
371	80.857
372	80.882
373	80.799
374	80.834
375	80.827
376	80.782
377	80.891
378	80.875
379	80.746
380	80.76
381	80.697
382	80.646
383	80.639
384	80.61
385	80.622
386	80.589
387	80.568
388	80.502
389	80.415
390	80.433
391	80.306
392	80.304
393	80.428
394	80.329
395	80.261
396	80.326
397	80.355
398	80.342
399	80.407
400	80.356
401	80.23
402	80.388
403	80.318
404	80.165
405	80.287
406	80.344
407	80.08
408	80.245
409	80.376
410	80.244
411	80.316
412	80.356
413	80.407
414	80.348
415	80.426
416	80.643
417	80.414
418	80.472
419	80.711
420	80.629
421	80.52
422	80.574
423	80.591
424	80.716
425	80.494
426	80.503
427	80.798
428	80.601
429	80.588
430	80.645
431	80.607
432	80.61
433	80.536
434	80.566
435	80.607
436	80.495
437	80.569
438	80.691
439	80.522
440	80.537
441	80.534
442	80.609
443	80.616
444	80.499
445	80.725
446	80.682
447	80.472
448	80.607
449	80.666
450	80.737
451	80.741
452	80.69
453	80.726
454	80.654
455	80.625
456	80.686
457	80.737
458	80.717
459	80.649
460	80.755
461	80.799
462	80.755
463	80.794
464	80.714
465	80.798
466	80.696
467	80.694
468	80.873
469	80.797
470	80.786
471	80.773
472	80.816
473	80.864
474	80.792
475	80.875
476	80.919
477	80.834
478	80.93
479	80.964
480	80.909
481	80.914
482	80.93
483	81.013
484	80.931
485	80.952
486	81.031
487	80.982
488	81.084
489	81.1
490	81.018
491	81.099
492	81.053
493	81.015
494	81.056
495	81.157
496	81.097
497	80.992
498	81.057
499	81.134
500	81.091
501	81.107
502	81.093
503	81.083
504	81.068
505	81.054
506	81.109
507	81.008
508	81.03
509	81.138
510	81.083
511	81.069
512	81.052
513	81.047
514	81.04
515	81.028
516	81.049
517	81.025
518	81.029
519	80.998
520	80.961
521	81.004
522	81.013
523	81.018
524	81.007
525	80.98
526	80.994
527	81.005
528	81.045
529	81.067
530	81.069
531	81.133
532	81.121
533	81.171
534	81.208
535	81.236
536	81.29
537	81.29
538	81.327
539	81.358
540	81.38
541	81.405
542	81.388
543	81.429
544	81.479
545	81.496
546	81.529
547	81.581
548	81.612
549	81.627
550	81.64
551	81.642
552	81.671
553	81.705
554	81.736
555	81.774
556	81.815
557	81.845
558	81.827
559	81.879
560	81.882
561	81.91
562	81.933
563	81.921
564	81.985
565	82.02
566	82.009
567	82
568	82.042
569	82.065
570	82.066
571	82.077
572	82.076
573	82.103
574	82.15
575	82.177
576	82.166
577	82.177
578	82.194
579	82.2
580	82.211
581	82.2
582	82.225
583	82.286
584	82.304
585	82.338
586	82.334
587	82.343
588	82.319
589	82.317
590	82.373
591	82.33
592	82.347
593	82.363
594	82.394
595	82.449
596	82.426
597	82.438
598	82.449
599	82.451
600	82.445
601	82.462
602	82.509
603	82.486
604	82.489
605	82.506
606	82.539
607	82.559
608	82.555
609	82.526
610	82.555
611	82.577
612	82.562
613	82.6
614	82.598
615	82.58
616	82.598
617	82.646
618	82.627
619	82.604
620	82.633
621	82.658
622	82.638
623	82.63
624	82.655
625	82.689
626	82.68
627	82.675
628	82.683
629	82.683
630	82.689
631	82.696
632	82.707
633	82.714
634	82.708
635	82.713
636	82.73
637	82.736
638	82.73
639	82.721
640	82.734
641	82.734
642	82.744
643	82.768
644	82.748
645	82.755
646	82.772
647	82.772
648	82.779
649	82.782
650	82.784
651	82.789
652	82.8
653	82.79
654	82.795
655	82.796
656	82.803
657	82.816
658	82.809
659	82.82
660	82.816
661	82.819
662	82.83
663	82.836
664	82.845
665	82.856
666	82.882
667	82.878
668	82.849
669	82.857
670	82.862
671	82.864
672	82.876
673	82.873
674	82.87
675	82.88
676	82.892
677	82.901
678	82.895
679	82.899
680	82.904
681	82.904
682	82.918
683	82.92
684	82.915
685	82.938
686	82.93
687	82.922
688	82.944
689	82.94
690	82.94
691	82.94
692	82.952
693	82.942
694	82.921
695	82.943
696	82.933
697	82.932
698	82.953
699	82.947
700	82.953
701	82.962
702	82.945
703	82.952
704	82.963
705	82.956
706	82.956
707	82.956
708	82.957
709	82.958
710	82.952
711	82.974
712	82.975
713	82.959
714	82.966
715	82.973
716	82.969
717	82.969
718	82.966
719	82.963
720	82.971
721	82.97
722	82.967
723	82.975
724	82.979
725	82.962
726	82.972
727	82.958
728	82.949
729	82.957
730	82.957
731	82.949
732	82.945
733	82.966
734	82.951
735	82.953
736	82.962
737	82.949
738	82.953
739	82.958
740	82.959
741	82.964
742	82.959
743	82.955
744	82.968
745	82.961
746	82.962
747	82.969
748	82.957
749	82.97
750	82.979
751	82.961
752	82.962
753	82.96
754	82.968
755	82.964
756	82.969
757	82.985
758	82.967
759	82.954
760	82.966
761	82.971
762	82.957
763	82.961
764	82.974
765	82.983
766	83.001
767	82.993
768	82.986
769	83.004
770	82.993
771	82.995
772	82.993
773	82.976
774	83.001
775	82.997
776	82.994
777	83.011
778	83.008
779	83.01
780	83.017
781	83.019
782	83.015
783	83.015
784	83.016
785	83.017
786	83.026
787	83.024
788	83.019
789	83.024
790	83.019
791	83.036
792	83.037
793	83.034
794	83.043
795	83.05
796	83.051
797	83.048
798	83.052
799	83.05
800	83.061
801	83.064
802	83.06
803	83.058
804	83.06
805	83.077
806	83.083
807	83.081
808	83.07
809	83.075
810	83.105
811	83.086
812	83.072
813	83.081
814	83.086
815	83.077
816	83.09
817	83.107
818	83.09
819	83.113
820	83.112
821	83.11
822	83.117
823	83.11
824	83.12
825	83.114
826	83.123
827	83.124
828	83.12
829	83.132
830	83.136
831	83.139
832	83.144
833	83.14
834	83.157
835	83.169
836	83.152
837	83.159
838	83.176
839	83.167
840	83.172
841	83.178
842	83.174
843	83.181
844	83.178
845	83.185
846	83.191
847	83.195
848	83.187
849	83.187
850	83.2
851	83.2
852	83.207
853	83.218
854	83.216
855	83.219
856	83.223
857	83.223
858	83.237
859	83.226
860	83.219
861	83.237
862	83.235
863	83.238
864	83.26
865	83.245
866	83.249
867	83.253
868	83.254
869	83.263
870	83.269
871	83.279
872	83.268
873	83.265
874	83.269
875	83.269
876	83.277
877	83.281
878	83.271
879	83.277
880	83.281
881	83.287
882	83.301
883	83.298
884	83.295
885	83.304
886	83.312
887	83.314
888	83.312
889	83.314
890	83.319
891	83.316
892	83.331
893	83.332
894	83.329
895	83.333
896	83.332
897	83.341
898	83.347
899	83.339
900	83.336
901	83.347
902	83.349
903	83.349
904	83.355
905	83.356
906	83.371
907	83.38
908	83.362
909	83.356
910	83.347
911	83.368
912	83.381
913	83.376
914	83.375
915	83.365
916	83.37
917	83.363
918	83.369
919	83.384
920	83.38
921	83.38
922	83.385
923	83.393
924	83.385
925	83.38
926	83.399
927	83.392
928	83.379
929	83.391
930	83.388
931	83.407
932	83.403
933	83.395
934	83.414
935	83.407
936	83.408
937	83.408
938	83.419
939	83.402
940	83.414
941	83.431
942	83.408
943	83.411
944	83.418
945	83.384
946	83.392
947	83.419
948	83.394
949	83.403
950	83.392
951	83.41
952	83.403
953	83.384
954	83.414
955	83.404
956	83.393
957	83.4
958	83.402
959	83.377
960	83.389
961	83.389
962	83.389
963	83.405
964	83.403
965	83.396
966	83.395
967	83.383
968	83.382
969	83.387
970	83.358
971	83.397
972	83.399
973	83.359
974	83.391
975	83.358
976	83.369
977	83.38
978	83.358
979	83.366
980	83.358
981	83.345
982	83.343
983	83.361
984	83.334
985	83.361
986	83.352
987	83.326
988	83.359
989	83.337
990	83.33
991	83.341
992	83.303
993	83.332
994	83.345
995	83.323
996	83.298
997	83.317
998	83.319
999	83.309
1000	83.35
1001	83.295
1002	83.286
1003	83.301
1004	83.26
1005	83.267
1006	83.306
1007	83.288
1008	83.281
1009	83.273
1010	83.249
1011	83.276
1012	83.27
1013	83.263
1014	83.276
1015	83.263
1016	83.238
1017	83.231
1018	83.242
1019	83.225
1020	83.224
1021	83.234
1022	83.231
1023	83.256
1024	83.252
1025	83.205
1026	83.213
1027	83.225
1028	83.191
1029	83.19
1030	83.203
1031	83.179
1032	83.174
1033	83.166
1034	83.152
1035	83.155
1036	83.163
1037	83.145
1038	83.136
1039	83.134
1040	83.122
1041	83.119
1042	83.119
1043	83.109
1044	83.106
1045	83.115
1046	83.116
1047	83.111
1048	83.109
1049	83.093
1050	83.077
1051	83.086
1052	83.074
1053	83.073
1054	83.064
1055	83.052
1056	83.064
1057	83.045
1058	83.043
1059	83.022
1060	83.031
1061	83.032
1062	83.009
1063	83.02
1064	82.99
1065	83.002
1066	83.007
1067	82.997
1068	82.989
1069	82.958
1070	82.957
1071	82.948
1072	82.957
1073	82.953
1074	82.929
1075	82.939
1076	82.941
1077	82.929
1078	82.916
1079	82.896
1080	82.881
1081	82.875
1082	82.861
1083	82.846
1084	82.853
1085	82.853
1086	82.836
1087	82.822
1088	82.82
1089	82.821
1090	82.809
1091	82.8
1092	82.786
1093	82.796
1094	82.794
1095	82.769
1096	82.779
1097	82.751
1098	82.76
1099	82.767
1100	82.733
1101	82.757
1102	82.72
1103	82.737
1104	82.722
1105	82.72
1106	82.74
1107	82.679
1108	82.71
1109	82.699
1110	82.681
1111	82.688
1112	82.667
1113	82.672
1114	82.642
1115	82.631
1116	82.634
1117	82.643
1118	82.618
1119	82.593
1120	82.595
1121	82.59
1122	82.583
1123	82.576
1124	82.61
1125	82.571
1126	82.572
1127	82.581
1128	82.535
1129	82.582
1130	82.541
1131	82.551
1132	82.567
1133	82.496
1134	82.526
1135	82.543
1136	82.506
1137	82.512
1138	82.504
1139	82.486
1140	82.525
1141	82.502
1142	82.509
1143	82.518
1144	82.48
1145	82.531
1146	82.511
1147	82.489
1148	82.521
1149	82.474
1150	82.477
1151	82.483
1152	82.476
1153	82.482
1154	82.493
1155	82.49
1156	82.486
1157	82.485
1158	82.482
1159	82.489
1160	82.467
1161	82.475
1162	82.496
1163	82.476
1164	82.475
1165	82.482
1166	82.463
1167	82.47
1168	82.467
1169	82.46
1170	82.46
1171	82.423
1172	82.428
1173	82.456
1174	82.444
1175	82.43
1176	82.436
1177	82.448
1178	82.437
1179	82.411
1180	82.401
1181	82.388
1182	82.38
1183	82.392
1184	82.386
1185	82.383
1186	82.381
1187	82.361
1188	82.352
1189	82.38
1190	82.375
1191	82.338
1192	82.326
1193	82.341
1194	82.312
1195	82.319
1196	82.312
1197	82.299
1198	82.307
1199	82.272
1200	82.268
1201	82.269
1202	82.252
1203	82.248
1204	82.218
1205	82.201
1206	82.22
1207	82.196
1208	82.173
1209	82.207
1210	82.182
1211	82.18
1212	82.209
1213	82.171
1214	82.151
1215	82.141
1216	82.112
1217	82.134
1218	82.116
1219	82.094
1220	82.108
1221	82.086
1222	82.065
1223	82.044
1224	82.036
1225	82.054
1226	82.019
1227	82.016
1228	82.04
1229	82.027
1230	82.028
1231	81.992
1232	81.977
1233	81.99
1234	81.965
1235	81.966
1236	81.958
1237	81.947
1238	81.948
1239	81.938
1240	81.91
1241	81.906
1242	81.91
1243	81.89
1244	81.893
1245	81.904
1246	81.888
1247	81.886
1248	81.848
1249	81.819
1250	81.825
1251	81.824
1252	81.825
1253	81.846
1254	81.836
1255	81.822
1256	81.817
1257	81.77
1258	81.793
1259	81.8
1260	81.754
1261	81.785
1262	81.78
1263	81.757
1264	81.767
1265	81.737
1266	81.731
1267	81.752
1268	81.723
1269	81.738
1270	81.718
1271	81.706
1272	81.727
1273	81.709
1274	81.693
1275	81.706
1276	81.702
1277	81.698
1278	81.7
1279	81.679
1280	81.679
1281	81.679
1282	81.662
1283	81.646
1284	81.662
1285	81.682
1286	81.665
1287	81.68
1288	81.665
1289	81.658
1290	81.673
1291	81.65
1292	81.639
1293	81.648
1294	81.641
1295	81.63
1296	81.611
1297	81.619
1298	81.616
1299	81.63
1300	81.619
1301	81.583
1302	81.597
1303	81.614
1304	81.604
1305	81.606
1306	81.602
1307	81.592
1308	81.589
1309	81.584
1310	81.589
1311	81.568
1312	81.574
1313	81.581
1314	81.558
1315	81.564
1316	81.554
1317	81.55
1318	81.532
1319	81.519
1320	81.511
1321	81.501
1322	81.511
1323	81.5
1324	81.49
1325	81.48
1326	81.468
1327	81.465
1328	81.457
1329	81.464
1330	81.434
1331	81.447
1332	81.452
1333	81.411
1334	81.408
1335	81.391
1336	81.384
1337	81.396
1338	81.385
1339	81.374
1340	81.371
1341	81.373
1342	81.35
1343	81.336
1344	81.336
1345	81.318
1346	81.313
1347	81.316
1348	81.276
1349	81.264
1350	81.288
1351	81.281
1352	81.252
1353	81.235
1354	81.24
1355	81.243
1356	81.217
1357	81.222
1358	81.23
1359	81.216
1360	81.226
1361	81.223
1362	81.221
1363	81.201
1364	81.202
1365	81.193
1366	81.172
1367	81.194
1368	81.181
1369	81.169
1370	81.17
1371	81.16
1372	81.169
1373	81.159
1374	81.113
1375	81.109
1376	81.109
1377	81.102
1378	81.092
1379	81.082
1380	81.091
1381	81.074
1382	81.058
1383	81.05
1384	81.044
1385	81.065
1386	81.028
1387	81.037
1388	81.045
1389	81.006
1390	81.024
1391	81.025
1392	80.995
1393	81.004
1394	80.997
1395	80.995
1396	80.99
1397	80.971
1398	80.985
1399	80.978
1400	80.965
1401	80.955
1402	80.949
1403	80.953
1404	80.934
1405	80.931
1406	80.918
1407	80.9
1408	80.901
1409	80.884
1410	80.889
1411	80.868
1412	80.874
1413	80.875
1414	80.856
1415	80.881
1416	80.856
1417	80.83
1418	80.847
1419	80.839
1420	80.82
1421	80.815
1422	80.809
1423	80.801
1424	80.792
1425	80.797
1426	80.809
1427	80.816
1428	80.807
1429	80.788
1430	80.774
1431	80.776
1432	80.775
1433	80.774
1434	80.765
1435	80.753
1436	80.753
1437	80.768
1438	80.742
1439	80.731
1440	80.727
1441	80.711
1442	80.734
1443	80.713
1444	80.682
1445	80.706
1446	80.708
1447	80.7
1448	80.713
1449	80.696
1450	80.675
1451	80.662
1452	80.641
1453	80.66
1454	80.623
1455	80.629
1456	80.632
1457	80.609
1458	80.617
1459	80.605
1460	80.603
1461	80.609
1462	80.6
1463	80.566
1464	80.582
1465	80.603
1466	80.582
1467	80.564
1468	80.578
1469	80.575
1470	80.54
1471	80.517
1472	80.523
1473	80.535
1474	80.552
1475	80.542
1476	80.558
1477	80.555
1478	80.521
1479	80.519
1480	80.514
1481	80.505
1482	80.494
1483	80.488
1484	80.469
1485	80.471
1486	80.481
1487	80.508
1488	80.515
1489	80.486
1490	80.484
1491	80.463
1492	80.466
1493	80.466
1494	80.445
1495	80.443
1496	80.438
1497	80.453
1498	80.432
1499	80.426
1500	80.444
1501	80.446
1502	80.464
1503	80.451
1504	80.414
1505	80.429
1506	80.44
1507	80.411
1508	80.401
1509	80.403
1510	80.398
1511	80.434
1512	80.432
1513	80.397
1514	80.396
1515	80.41
1516	80.393
1517	80.397
1518	80.392
1519	80.384
1520	80.422
1521	80.399
1522	80.34
1523	80.378
1524	80.384
1525	80.365
1526	80.366
1527	80.362
1528	80.365
1529	80.365
1530	80.349
1531	80.349
1532	80.352
1533	80.364
1534	80.342
1535	80.335
1536	80.342
1537	80.344
1538	80.359
1539	80.333
1540	80.351
1541	80.361
1542	80.352
1543	80.339
1544	80.319
1545	80.318
1546	80.304
1547	80.302
1548	80.274
1549	80.284
1550	80.305
1551	80.286
1552	80.29
1553	80.287
1554	80.251
1555	80.243
1556	80.265
1557	80.278
1558	80.26
1559	80.259
1560	80.283
1561	80.259
1562	80.233
1563	80.233
1564	80.226
1565	80.216
1566	80.223
1567	80.21
1568	80.187
1569	80.207
1570	80.207
1571	80.215
1572	80.204
1573	80.169
1574	80.161
1575	80.151
1576	80.154
1577	80.14
1578	80.129
1579	80.146
1580	80.136
1581	80.116
1582	80.098
1583	80.106
1584	80.08
1585	80.063
1586	80.047
1587	80.061
1588	80.048
1589	80.054
1590	80.065
1591	80.012
1592	80.021
1593	80.004
1594	79.957
1595	80.003
1596	79.995
1597	79.946
1598	79.941
1599	79.926
1600	79.904
1601	79.892
1602	79.891
1603	79.875
1604	79.823
1605	79.809
1606	79.775
1607	79.751
1608	79.739
1609	79.724
1610	79.699
1611	79.675
1612	79.624
1613	79.585
1614	79.576
1615	79.545
1616	79.518
1617	79.491
1618	79.476
1619	79.44
1620	79.397
1621	79.347
1622	79.315
1623	79.258
1624	79.198
1625	79.159
1626	79.107
1627	79.08
1628	79.034
1629	79.003
1630	78.934
1631	78.925
1632	78.869
1633	78.831
1634	78.81
1635	78.736
1636	78.702
1637	78.672
1638	78.621
1639	78.578
1640	78.582
1641	78.551
1642	78.51
1643	78.517
1644	78.514
1645	78.484
1646	78.448
1647	78.473
1648	78.439
1649	78.395
