Freq(Hz)	SPL(dB)
20	81.272
21	81.418
22	81.756
23	82.062
24	82.535
25	82.862
26	83.328
27	83.711
28	83.938
29	84.012
30	84.111
31	84.175
32	84.28
33	84.356
34	84.419
35	84.478
36	84.493
37	84.469
38	84.436
39	84.384
40	84.353
41	84.299
42	84.254
43	84.207
44	84.152
45	84.072
46	84.004
47	83.956
48	83.875
49	83.799
50	83.712
51	83.654
52	83.588
53	83.517
54	83.445
55	83.399
56	83.333
57	83.274
58	83.211
59	83.171
60	83.122
61	83.065
62	83.036
63	83.008
64	82.958
65	82.927
66	82.907
67	82.866
68	82.837
69	82.813
70	82.8
71	82.777
72	82.749
73	82.744
74	82.741
75	82.727
76	82.728
77	82.721
78	82.706
79	82.7
80	82.697
81	82.7
82	82.693
83	82.686
84	82.684
85	82.687
86	82.691
87	82.683
88	82.682
89	82.689
90	82.689
91	82.682
92	82.684
93	82.685
94	82.682
95	82.685
96	82.688
97	82.682
98	82.686
99	82.686
100	82.669
101	82.662
102	82.656
103	82.645
104	82.629
105	82.614
106	82.598
107	82.591
108	82.579
109	82.561
110	82.544
111	82.53
112	82.519
113	82.504
114	82.486
115	82.474
116	82.463
117	82.452
118	82.443
119	82.432
120	82.421
121	82.402
122	82.402
123	82.405
124	82.389
125	82.381
126	82.368
127	82.36
128	82.341
129	82.328
130	82.324
131	82.298
132	82.27
133	82.253
134	82.229
135	82.206
136	82.168
137	82.146
138	82.12
139	82.078
140	82.051
141	82.017
142	81.968
143	81.924
144	81.89
145	81.836
146	81.792
147	81.729
148	81.69
149	81.631
150	81.575
151	81.54
152	81.471
153	81.408
154	81.351
155	81.305
156	81.239
157	81.171
158	81.107
159	81.061
160	80.984
161	80.92
162	80.839
163	80.789
164	80.725
165	80.652
166	80.608
167	80.534
168	80.456
169	80.393
170	80.347
171	80.267
172	80.2
173	80.124
174	80.073
175	80.007
176	79.938
177	79.903
178	79.837
179	79.771
180	79.701
181	79.647
182	79.598
183	79.526
184	79.468
185	79.442
186	79.368
187	79.309
188	79.282
189	79.233
190	79.186
191	79.144
192	79.119
193	79.068
194	79.028
195	78.998
196	78.978
197	78.952
198	78.908
199	78.896
200	78.885
201	78.843
202	78.834
203	78.827
204	78.798
205	78.782
206	78.781
207	78.769
208	78.755
209	78.757
210	78.751
211	78.751
212	78.734
213	78.742
214	78.752
215	78.744
216	78.761
217	78.759
218	78.763
219	78.777
220	78.78
221	78.792
222	78.79
223	78.808
224	78.833
225	78.829
226	78.839
227	78.852
228	78.871
229	78.884
230	78.885
231	78.891
232	78.909
233	78.926
234	78.945
235	78.969
236	78.987
237	78.991
238	79.001
239	79.02
240	79.033
241	79.062
242	79.068
243	79.089
244	79.115
245	79.136
246	79.149
247	79.167
248	79.177
249	79.193
250	79.217
251	79.214
252	79.215
253	79.232
254	79.249
255	79.257
256	79.268
257	79.298
258	79.324
259	79.34
260	79.362
261	79.374
262	79.407
263	79.419
264	79.43
265	79.46
266	79.468
267	79.478
268	79.5
269	79.515
270	79.525
271	79.564
272	79.599
273	79.609
274	79.63
275	79.66
276	79.681
277	79.707
278	79.723
279	79.756
280	79.79
281	79.804
282	79.827
283	79.853
284	79.882
285	79.895
286	79.91
287	79.948
288	79.973
289	79.988
290	80.013
291	80.041
292	80.06
293	80.083
294	80.105
295	80.132
296	80.153
297	80.177
298	80.2
299	80.228
300	80.235
301	80.257
302	80.288
303	80.302
304	80.32
305	80.346
306	80.367
307	80.387
308	80.402
309	80.412
310	80.436
311	80.446
312	80.468
313	80.498
314	80.519
315	80.522
316	80.522
317	80.545
318	80.564
319	80.585
320	80.592
321	80.616
322	80.625
323	80.618
324	80.638
325	80.653
326	80.667
327	80.678
328	80.681
329	80.69
330	80.7
331	80.722
332	80.719
333	80.736
334	80.761
335	80.757
336	80.78
337	80.784
338	80.798
339	80.811
340	80.812
341	80.834
342	80.841
343	80.842
344	80.862
345	80.878
346	80.882
347	80.902
348	80.91
349	80.916
350	80.934
351	80.936
352	80.944
353	80.947
354	80.961
355	80.97
356	80.964
357	80.98
358	80.996
359	80.999
360	81.011
361	81.011
362	81.004
363	81.012
364	81.017
365	81.028
366	81.036
367	81.038
368	81.052
369	81.051
370	81.058
371	81.064
372	81.053
373	81.056
374	81.059
375	81.052
376	81.048
377	81.047
378	81.039
379	81.031
380	81.039
381	81.021
382	81.005
383	81.014
384	81.005
385	80.989
386	80.985
387	80.972
388	80.926
389	80.925
390	80.917
391	80.879
392	80.853
393	80.823
394	80.822
395	80.797
396	80.768
397	80.744
398	80.688
399	80.687
400	80.671
401	80.65
402	80.637
403	80.605
404	80.606
405	80.588
406	80.579
407	80.581
408	80.582
409	80.59
410	80.616
411	80.618
412	80.653
413	80.693
414	80.72
415	80.76
416	80.776
417	80.8
418	80.826
419	80.836
420	80.862
421	80.874
422	80.878
423	80.893
424	80.904
425	80.892
426	80.901
427	80.886
428	80.881
429	80.903
430	80.885
431	80.897
432	80.879
433	80.871
434	80.88
435	80.847
436	80.856
437	80.839
438	80.804
439	80.827
440	80.778
441	80.782
442	80.793
443	80.749
444	80.779
445	80.748
446	80.706
447	80.729
448	80.685
449	80.639
450	80.643
451	80.6
452	80.578
453	80.563
454	80.523
455	80.499
456	80.493
457	80.457
458	80.425
459	80.415
460	80.399
461	80.396
462	80.396
463	80.377
464	80.375
465	80.379
466	80.385
467	80.38
468	80.375
469	80.377
470	80.367
471	80.371
472	80.373
473	80.375
474	80.385
475	80.383
476	80.365
477	80.366
478	80.355
479	80.345
480	80.366
481	80.356
482	80.361
483	80.376
484	80.336
485	80.338
486	80.343
487	80.307
488	80.319
489	80.327
490	80.315
491	80.318
492	80.319
493	80.319
494	80.307
495	80.311
496	80.29
497	80.264
498	80.272
499	80.253
500	80.24
501	80.261
502	80.24
503	80.246
504	80.253
505	80.245
506	80.249
507	80.238
508	80.231
509	80.227
510	80.222
511	80.211
512	80.211
513	80.204
514	80.193
515	80.192
516	80.189
517	80.189
518	80.184
519	80.173
520	80.163
521	80.159
522	80.155
523	80.144
524	80.137
525	80.15
526	80.143
527	80.144
528	80.143
529	80.142
530	80.135
531	80.115
532	80.121
533	80.112
534	80.102
535	80.113
536	80.114
537	80.099
538	80.091
539	80.094
540	80.104
541	80.083
542	80.078
543	80.096
544	80.07
545	80.069
546	80.073
547	80.06
548	80.067
549	80.061
550	80.043
551	80.042
552	80.036
553	80.032
554	80.012
555	80.011
556	80.014
557	79.987
558	79.978
559	79.972
560	79.969
561	79.952
562	79.945
563	79.947
564	79.917
565	79.91
566	79.91
567	79.891
568	79.87
569	79.88
570	79.861
571	79.843
572	79.835
573	79.826
574	79.828
575	79.827
576	79.796
577	79.794
578	79.798
579	79.751
580	79.756
581	79.77
582	79.747
583	79.726
584	79.739
585	79.724
586	79.701
587	79.705
588	79.699
589	79.682
590	79.681
591	79.684
592	79.666
593	79.661
594	79.67
595	79.671
596	79.672
597	79.662
598	79.64
599	79.631
600	79.624
601	79.613
602	79.59
603	79.583
604	79.575
605	79.574
606	79.567
607	79.548
608	79.55
609	79.534
610	79.521
611	79.501
612	79.493
613	79.478
614	79.463
615	79.463
616	79.453
617	79.441
618	79.416
619	79.402
620	79.375
621	79.376
622	79.358
623	79.348
624	79.34
625	79.301
626	79.3
627	79.291
628	79.279
629	79.267
630	79.243
631	79.229
632	79.218
633	79.21
634	79.206
635	79.159
636	79.148
637	79.145
638	79.126
639	79.104
640	79.079
641	79.072
642	79.059
643	79.025
644	79.02
645	79.01
646	78.979
647	78.979
648	78.955
649	78.938
650	78.926
651	78.909
652	78.897
653	78.881
654	78.863
655	78.846
656	78.832
657	78.824
658	78.807
659	78.784
660	78.77
661	78.749
662	78.727
663	78.718
664	78.707
665	78.688
666	78.669
667	78.651
668	78.631
669	78.602
670	78.594
671	78.597
672	78.581
673	78.538
674	78.524
675	78.511
676	78.492
677	78.476
678	78.449
679	78.443
680	78.437
681	78.427
682	78.41
683	78.381
684	78.363
685	78.347
686	78.335
687	78.321
688	78.312
689	78.286
690	78.272
691	78.263
692	78.262
693	78.249
694	78.242
695	78.252
696	78.227
697	78.219
698	78.2
699	78.203
700	78.181
701	78.168
702	78.177
703	78.156
704	78.157
705	78.141
706	78.122
707	78.113
708	78.1
709	78.105
710	78.082
711	78.071
712	78.075
713	78.056
714	78.041
715	78.017
716	78.011
717	78.027
718	77.986
719	77.971
720	77.977
721	77.951
722	77.956
723	77.942
724	77.919
725	77.899
726	77.869
727	77.875
728	77.861
729	77.848
730	77.843
731	77.831
732	77.826
733	77.814
734	77.804
735	77.785
736	77.781
737	77.768
738	77.756
739	77.747
740	77.73
741	77.729
742	77.709
743	77.678
744	77.681
745	77.675
746	77.663
747	77.634
748	77.642
749	77.64
750	77.608
751	77.593
752	77.58
753	77.578
754	77.562
755	77.543
756	77.536
757	77.519
758	77.49
759	77.486
760	77.476
761	77.451
762	77.453
763	77.45
764	77.423
765	77.411
766	77.401
767	77.365
768	77.364
769	77.368
770	77.336
771	77.318
772	77.33
773	77.337
774	77.3
775	77.281
776	77.284
777	77.275
778	77.265
779	77.258
780	77.244
781	77.24
782	77.226
783	77.233
784	77.232
785	77.197
786	77.202
787	77.182
788	77.155
789	77.149
790	77.131
791	77.127
792	77.109
793	77.118
794	77.117
795	77.079
796	77.071
797	77.076
798	77.05
799	77.059
800	77.052
801	77.028
802	77.037
803	77.017
804	77.012
805	77.004
806	76.984
807	76.973
808	76.975
809	76.969
810	76.953
811	76.94
812	76.934
813	76.942
814	76.902
815	76.9
816	76.909
817	76.913
818	76.9
819	76.865
820	76.874
821	76.885
822	76.862
823	76.844
824	76.848
825	76.841
826	76.813
827	76.803
828	76.784
829	76.784
830	76.787
831	76.777
832	76.769
833	76.753
834	76.743
835	76.731
836	76.692
837	76.689
838	76.685
839	76.656
840	76.651
841	76.632
842	76.611
843	76.6
844	76.578
845	76.575
846	76.574
847	76.546
848	76.527
849	76.525
850	76.535
851	76.511
852	76.506
853	76.506
854	76.48
855	76.465
856	76.459
857	76.447
858	76.429
859	76.43
860	76.413
861	76.401
862	76.41
863	76.414
864	76.396
865	76.386
866	76.388
867	76.352
868	76.345
869	76.348
870	76.312
871	76.32
872	76.327
873	76.291
874	76.288
875	76.299
876	76.288
877	76.268
878	76.236
879	76.244
880	76.251
881	76.246
882	76.254
883	76.248
884	76.26
885	76.231
886	76.204
887	76.204
888	76.197
889	76.19
890	76.184
891	76.19
892	76.181
893	76.165
894	76.173
895	76.159
896	76.153
897	76.139
898	76.121
899	76.123
900	76.119
901	76.119
902	76.106
903	76.101
904	76.096
905	76.084
906	76.093
907	76.095
908	76.075
909	76.059
910	76.057
911	76.066
912	76.048
913	76.044
914	76.051
915	76.037
916	76.044
917	76.065
918	76.043
919	76.055
920	76.077
921	76.058
922	76.061
923	76.046
924	76.032
925	76.057
926	76.043
927	76.02
928	76.023
929	76.03
930	76.005
931	76.007
932	76.014
933	75.975
934	75.953
935	75.953
936	75.966
937	75.964
938	75.973
939	76.004
940	75.999
941	76.014
942	76.014
943	76.028
944	76.059
945	76.044
946	76.045
947	76.08
948	76.104
949	76.111
950	76.122
951	76.126
952	76.139
953	76.143
954	76.134
955	76.122
956	76.124
957	76.121
958	76.105
959	76.099
960	76.083
961	76.078
962	76.074
963	76.078
964	76.072
965	76.048
966	76.045
967	76.046
968	76.056
969	76.063
970	76.063
971	76.047
972	76.016
973	76.014
974	76.023
975	76.004
976	76.005
977	76.007
978	75.999
979	75.989
980	75.995
981	76.007
982	75.985
983	75.997
984	76.024
985	75.993
986	75.986
987	75.983
988	75.988
989	75.996
990	75.975
991	75.964
992	75.973
993	75.962
994	75.962
995	75.966
996	75.975
997	75.966
998	75.954
999	75.949
1000	75.964
1001	75.991
1002	75.972
1003	75.95
1004	75.97
1005	75.985
1006	75.993
1007	75.973
1008	75.967
1009	75.969
1010	75.978
1011	75.982
1012	75.981
1013	75.988
1014	76.001
1015	75.98
1016	75.967
1017	75.98
1018	75.989
1019	76.014
1020	76.017
1021	76.007
1022	76.012
1023	76.021
1024	76.03
1025	76.025
1026	76.029
1027	76.022
1028	76.02
1029	76.036
1030	76.027
1031	76.023
1032	76.043
1033	76.064
1034	76.045
1035	76.042
1036	76.062
1037	76.061
1038	76.059
1039	76.073
1040	76.081
1041	76.078
1042	76.093
1043	76.103
1044	76.108
1045	76.105
1046	76.094
1047	76.11
1048	76.119
1049	76.116
1050	76.125
1051	76.143
1052	76.16
1053	76.158
1054	76.15
1055	76.157
1056	76.181
1057	76.174
1058	76.187
1059	76.195
1060	76.174
1061	76.198
1062	76.204
1063	76.209
1064	76.23
1065	76.22
1066	76.234
1067	76.229
1068	76.226
1069	76.256
1070	76.245
1071	76.258
1072	76.272
1073	76.258
1074	76.279
1075	76.292
1076	76.296
1077	76.317
1078	76.321
1079	76.329
1080	76.329
1081	76.335
1082	76.345
1083	76.354
1084	76.377
1085	76.359
1086	76.376
1087	76.397
1088	76.4
1089	76.421
1090	76.425
1091	76.434
1092	76.437
1093	76.439
1094	76.452
1095	76.443
1096	76.465
1097	76.494
1098	76.493
1099	76.488
1100	76.491
1101	76.51
1102	76.521
1103	76.527
1104	76.55
1105	76.555
1106	76.547
1107	76.569
1108	76.572
1109	76.572
1110	76.585
1111	76.604
1112	76.633
1113	76.637
1114	76.631
1115	76.643
1116	76.65
1117	76.649
1118	76.661
1119	76.677
1120	76.682
1121	76.683
1122	76.696
1123	76.719
1124	76.721
1125	76.714
1126	76.737
1127	76.755
1128	76.763
1129	76.782
1130	76.766
1131	76.779
1132	76.79
1133	76.778
1134	76.802
1135	76.819
1136	76.826
1137	76.838
1138	76.845
1139	76.842
1140	76.857
1141	76.879
1142	76.894
1143	76.89
1144	76.886
1145	76.91
1146	76.918
1147	76.936
1148	76.927
1149	76.941
1150	76.957
1151	76.956
1152	76.972
1153	76.98
1154	76.987
1155	77.005
1156	77.002
1157	77.022
1158	77.047
1159	77.04
1160	77.028
1161	77.039
1162	77.07
1163	77.085
1164	77.107
1165	77.123
1166	77.116
1167	77.111
1168	77.121
1169	77.131
1170	77.14
1171	77.154
1172	77.158
1173	77.17
1174	77.195
1175	77.197
1176	77.214
1177	77.232
1178	77.238
1179	77.246
1180	77.244
1181	77.239
1182	77.261
1183	77.273
1184	77.272
1185	77.287
1186	77.283
1187	77.276
1188	77.287
1189	77.321
1190	77.316
1191	77.321
1192	77.337
1193	77.332
1194	77.351
1195	77.342
1196	77.352
1197	77.358
1198	77.348
1199	77.368
1200	77.351
1201	77.353
1202	77.358
1203	77.354
1204	77.366
1205	77.364
1206	77.374
1207	77.374
1208	77.377
1209	77.398
1210	77.394
1211	77.397
1212	77.391
1213	77.386
1214	77.402
1215	77.402
1216	77.424
1217	77.43
1218	77.42
1219	77.423
1220	77.418
1221	77.429
1222	77.432
1223	77.418
1224	77.428
1225	77.445
1226	77.434
1227	77.445
1228	77.458
1229	77.45
1230	77.449
1231	77.46
1232	77.454
1233	77.439
1234	77.452
1235	77.46
1236	77.45
1237	77.467
1238	77.49
1239	77.485
1240	77.494
1241	77.497
1242	77.486
1243	77.48
1244	77.492
1245	77.505
1246	77.506
1247	77.508
1248	77.494
1249	77.517
1250	77.529
1251	77.518
1252	77.541
1253	77.553
1254	77.542
1255	77.547
1256	77.557
1257	77.57
1258	77.571
1259	77.548
1260	77.57
1261	77.588
1262	77.59
1263	77.596
1264	77.604
1265	77.609
1266	77.595
1267	77.616
1268	77.619
1269	77.625
1270	77.655
1271	77.639
1272	77.661
1273	77.648
1274	77.652
1275	77.677
1276	77.675
1277	77.684
1278	77.684
1279	77.695
1280	77.69
1281	77.695
1282	77.725
1283	77.728
1284	77.712
1285	77.711
1286	77.725
1287	77.73
1288	77.746
1289	77.749
1290	77.753
1291	77.776
1292	77.783
1293	77.785
1294	77.791
1295	77.786
1296	77.788
1297	77.797
1298	77.789
1299	77.783
1300	77.791
1301	77.799
1302	77.797
1303	77.8
1304	77.808
1305	77.796
1306	77.804
1307	77.801
1308	77.806
1309	77.833
1310	77.833
1311	77.837
1312	77.828
1313	77.827
1314	77.839
1315	77.841
1316	77.845
1317	77.837
1318	77.841
1319	77.853
1320	77.843
1321	77.85
1322	77.857
1323	77.857
1324	77.881
1325	77.87
1326	77.862
1327	77.89
1328	77.883
1329	77.874
1330	77.883
1331	77.911
1332	77.919
1333	77.922
1334	77.933
1335	77.927
1336	77.929
1337	77.939
1338	77.952
1339	77.952
1340	77.961
1341	77.973
1342	77.977
1343	77.981
1344	77.973
1345	77.991
1346	78.001
1347	77.992
1348	78.006
1349	78.016
1350	78.017
1351	78.025
1352	78.048
1353	78.048
1354	78.048
1355	78.067
1356	78.046
1357	78.072
1358	78.087
1359	78.068
1360	78.068
1361	78.086
1362	78.097
1363	78.098
1364	78.092
1365	78.096
1366	78.103
1367	78.108
1368	78.101
1369	78.091
1370	78.107
1371	78.105
1372	78.119
1373	78.123
1374	78.115
1375	78.135
1376	78.105
1377	78.098
1378	78.129
1379	78.129
1380	78.122
1381	78.123
1382	78.111
1383	78.115
1384	78.128
1385	78.14
1386	78.142
1387	78.124
1388	78.117
1389	78.131
1390	78.118
1391	78.11
1392	78.132
1393	78.123
1394	78.136
1395	78.142
1396	78.138
1397	78.135
1398	78.127
1399	78.142
1400	78.143
1401	78.134
1402	78.128
1403	78.132
1404	78.156
1405	78.152
1406	78.146
1407	78.157
1408	78.135
1409	78.149
1410	78.162
1411	78.133
1412	78.121
1413	78.118
1414	78.14
1415	78.161
1416	78.132
1417	78.138
1418	78.163
1419	78.159
1420	78.142
1421	78.141
1422	78.15
1423	78.153
1424	78.149
1425	78.144
1426	78.152
1427	78.156
1428	78.144
1429	78.15
1430	78.162
1431	78.155
1432	78.16
1433	78.144
1434	78.138
1435	78.164
1436	78.146
1437	78.154
1438	78.181
1439	78.173
1440	78.184
1441	78.171
1442	78.18
1443	78.186
1444	78.168
1445	78.179
1446	78.196
1447	78.191
1448	78.189
1449	78.21
1450	78.212
1451	78.205
1452	78.194
1453	78.214
1454	78.215
1455	78.211
1456	78.202
1457	78.214
1458	78.228
1459	78.224
1460	78.215
1461	78.217
1462	78.232
1463	78.228
1464	78.23
1465	78.226
1466	78.22
1467	78.234
1468	78.241
1469	78.239
1470	78.238
1471	78.225
1472	78.255
1473	78.266
1474	78.242
1475	78.268
1476	78.267
1477	78.257
1478	78.26
1479	78.283
1480	78.292
1481	78.286
1482	78.302
1483	78.306
1484	78.297
1485	78.302
1486	78.296
1487	78.3
1488	78.313
1489	78.306
1490	78.324
1491	78.327
1492	78.328
1493	78.353
1494	78.353
1495	78.36
1496	78.372
1497	78.354
1498	78.367
1499	78.373
1500	78.372
1501	78.371
1502	78.375
1503	78.396
1504	78.392
1505	78.392
1506	78.4
1507	78.419
1508	78.437
1509	78.413
1510	78.431
1511	78.45
1512	78.434
1513	78.462
1514	78.476
1515	78.464
1516	78.457
1517	78.477
1518	78.48
1519	78.476
1520	78.49
1521	78.502
1522	78.505
1523	78.519
1524	78.526
1525	78.516
1526	78.53
1527	78.543
1528	78.548
1529	78.553
1530	78.538
1531	78.564
1532	78.568
1533	78.567
1534	78.599
1535	78.586
1536	78.59
1537	78.62
1538	78.61
1539	78.628
1540	78.631
1541	78.626
1542	78.646
1543	78.632
1544	78.644
1545	78.67
1546	78.647
1547	78.661
1548	78.718
1549	78.676
1550	78.681
1551	78.716
1552	78.684
1553	78.699
1554	78.715
1555	78.717
1556	78.744
1557	78.742
1558	78.756
1559	78.77
1560	78.766
1561	78.769
1562	78.782
1563	78.784
1564	78.803
1565	78.817
1566	78.82
1567	78.838
1568	78.837
1569	78.859
1570	78.885
1571	78.885
1572	78.872
1573	78.874
1574	78.881
1575	78.903
1576	78.92
1577	78.922
1578	78.931
1579	78.935
1580	78.959
1581	78.974
1582	78.986
1583	79.001
1584	79.001
1585	79.001
1586	79.014
1587	79.034
1588	79.038
1589	79.048
1590	79.088
1591	79.093
1592	79.072
1593	79.091
1594	79.121
1595	79.115
1596	79.119
1597	79.139
1598	79.157
1599	79.174
1600	79.186
1601	79.195
1602	79.217
1603	79.209
1604	79.221
1605	79.234
1606	79.243
1607	79.253
1608	79.284
1609	79.305
1610	79.295
1611	79.312
1612	79.336
1613	79.354
1614	79.352
1615	79.37
1616	79.39
1617	79.382
1618	79.398
1619	79.423
1620	79.438
1621	79.442
1622	79.454
1623	79.482
1624	79.5
1625	79.507
1626	79.517
1627	79.542
1628	79.557
1629	79.567
1630	79.581
1631	79.602
1632	79.613
1633	79.608
1634	79.634
1635	79.663
1636	79.67
1637	79.675
1638	79.678
1639	79.708
1640	79.719
1641	79.719
1642	79.758
1643	79.771
1644	79.784
1645	79.822
1646	79.818
1647	79.825
1648	79.832
1649	79.846
1650	79.878
1651	79.891
