Freq(Hz)	SPL(dB)
15	91.972
16	91.428
17	91.002
18	91.026
19	91.118
20	91.265
21	91.273
22	91.142
23	90.86
24	90.611
25	90.447
26	90.349
27	90.343
28	90.293
29	90.22
30	90.003
31	89.72
32	89.404
33	89.175
34	88.913
35	88.691
36	88.569
37	88.401
38	88.217
39	87.969
40	87.812
41	87.562
42	87.38
43	87.224
44	87.142
45	87.051
46	86.994
47	86.954
48	86.889
49	86.874
50	86.904
51	86.905
52	86.914
53	86.954
54	86.983
55	86.992
56	87.014
57	87.067
58	87.129
59	87.157
60	87.221
61	87.271
62	87.291
63	87.319
64	87.331
65	87.377
66	87.415
67	87.45
68	87.528
69	87.594
70	87.631
71	87.682
72	87.758
73	87.817
74	87.879
75	87.943
76	88.021
77	88.089
78	88.169
79	88.247
80	88.34
81	88.395
82	88.488
83	88.573
84	88.653
85	88.708
86	88.787
87	88.852
88	88.901
89	88.967
90	89.018
91	89.091
92	89.122
93	89.154
94	89.204
95	89.215
96	89.226
97	89.255
98	89.258
99	89.262
100	89.263
101	89.256
102	89.246
103	89.234
104	89.212
105	89.186
106	89.157
107	89.14
108	89.118
109	89.091
110	89.062
111	89.04
112	89.001
113	88.956
114	88.928
115	88.887
116	88.835
117	88.781
118	88.75
119	88.698
120	88.637
121	88.572
122	88.535
123	88.481
124	88.423
125	88.381
126	88.315
127	88.254
128	88.175
129	88.142
130	88.078
131	88.02
132	87.975
133	87.915
134	87.868
135	87.81
136	87.741
137	87.709
138	87.652
139	87.6
140	87.559
141	87.496
142	87.442
143	87.39
144	87.353
145	87.299
146	87.252
147	87.199
148	87.164
149	87.118
150	87.07
151	87.04
152	86.994
153	86.946
154	86.89
155	86.853
156	86.815
157	86.763
158	86.71
159	86.685
160	86.645
161	86.603
162	86.566
163	86.533
164	86.485
165	86.445
166	86.417
167	86.378
168	86.333
169	86.29
170	86.265
171	86.234
172	86.195
173	86.156
174	86.14
175	86.1
176	86.062
177	86.039
178	85.997
179	85.974
180	85.937
181	85.917
182	85.881
183	85.833
184	85.807
185	85.773
186	85.732
187	85.701
188	85.669
189	85.623
190	85.577
191	85.533
192	85.508
193	85.467
194	85.424
195	85.388
196	85.364
197	85.319
198	85.273
199	85.255
200	85.225
201	85.17
202	85.139
203	85.107
204	85.074
205	85.039
206	84.988
207	84.963
208	84.929
209	84.892
210	84.853
211	84.826
212	84.781
213	84.732
214	84.707
215	84.659
216	84.615
217	84.573
218	84.544
219	84.503
220	84.456
221	84.425
222	84.399
223	84.348
224	84.304
225	84.257
226	84.233
227	84.192
228	84.148
229	84.123
230	84.072
231	84.026
232	83.984
233	83.951
234	83.909
235	83.877
236	83.839
237	83.815
238	83.769
239	83.732
240	83.719
241	83.674
242	83.639
243	83.607
244	83.576
245	83.551
246	83.504
247	83.452
248	83.442
249	83.412
250	83.367
251	83.329
252	83.32
253	83.293
254	83.243
255	83.228
256	83.192
257	83.153
258	83.123
259	83.101
260	83.078
261	83.033
262	83.004
263	82.995
264	82.954
265	82.925
266	82.917
267	82.879
268	82.846
269	82.811
270	82.787
271	82.763
272	82.727
273	82.707
274	82.696
275	82.667
276	82.637
277	82.629
278	82.613
279	82.572
280	82.548
281	82.533
282	82.513
283	82.485
284	82.453
285	82.438
286	82.419
287	82.412
288	82.381
289	82.361
290	82.353
291	82.326
292	82.308
293	82.279
294	82.268
295	82.241
296	82.215
297	82.206
298	82.174
299	82.143
300	82.131
301	82.114
302	82.088
303	82.055
304	82.045
305	82.029
306	82.008
307	81.998
308	81.994
309	81.963
310	81.929
311	81.921
312	81.897
313	81.879
314	81.861
315	81.855
316	81.839
317	81.818
318	81.791
319	81.759
320	81.756
321	81.724
322	81.714
323	81.694
324	81.671
325	81.664
326	81.652
327	81.626
328	81.613
329	81.601
330	81.591
331	81.571
332	81.55
333	81.541
334	81.525
335	81.526
336	81.501
337	81.473
338	81.469
339	81.449
340	81.44
341	81.433
342	81.408
343	81.396
344	81.382
345	81.38
346	81.366
347	81.338
348	81.333
349	81.312
350	81.284
351	81.275
352	81.261
353	81.248
354	81.232
355	81.205
356	81.194
357	81.171
358	81.145
359	81.129
360	81.124
361	81.11
362	81.083
363	81.069
364	81.046
365	81.043
366	81.015
367	81.004
368	80.991
369	80.948
370	80.946
371	80.929
372	80.902
373	80.882
374	80.854
375	80.843
376	80.803
377	80.784
378	80.797
379	80.775
380	80.745
381	80.722
382	80.719
383	80.7
384	80.664
385	80.66
386	80.64
387	80.618
388	80.592
389	80.58
390	80.561
391	80.531
392	80.504
393	80.49
394	80.477
395	80.455
396	80.439
397	80.404
398	80.361
399	80.358
400	80.363
401	80.331
402	80.314
403	80.307
404	80.288
405	80.268
406	80.255
407	80.232
408	80.224
409	80.216
410	80.199
411	80.178
412	80.177
413	80.189
414	80.19
415	80.205
416	80.191
417	80.183
418	80.225
419	80.232
420	80.226
421	80.241
422	80.243
423	80.258
424	80.256
425	80.258
426	80.275
427	80.276
428	80.277
429	80.284
430	80.3
431	80.306
432	80.311
433	80.318
434	80.309
435	80.298
436	80.299
437	80.305
438	80.288
439	80.295
440	80.288
441	80.279
442	80.289
443	80.26
444	80.257
445	80.267
446	80.271
447	80.249
448	80.249
449	80.247
450	80.247
451	80.24
452	80.214
453	80.23
454	80.214
455	80.202
456	80.21
457	80.206
458	80.192
459	80.17
460	80.17
461	80.179
462	80.173
463	80.165
464	80.18
465	80.18
466	80.181
467	80.17
468	80.148
469	80.154
470	80.15
471	80.14
472	80.134
473	80.125
474	80.109
475	80.13
476	80.119
477	80.106
478	80.112
479	80.113
480	80.123
481	80.127
482	80.127
483	80.122
484	80.127
485	80.105
486	80.103
487	80.112
488	80.101
489	80.097
490	80.09
491	80.09
492	80.1
493	80.106
494	80.099
495	80.083
496	80.089
497	80.091
498	80.072
499	80.08
500	80.092
501	80.107
502	80.107
503	80.092
504	80.105
505	80.117
506	80.133
507	80.133
508	80.131
509	80.143
510	80.16
511	80.146
512	80.148
513	80.164
514	80.152
515	80.167
516	80.156
517	80.155
518	80.179
519	80.181
520	80.202
521	80.2
522	80.184
523	80.196
524	80.203
525	80.207
526	80.22
527	80.22
528	80.218
529	80.218
530	80.235
531	80.245
532	80.243
533	80.258
534	80.248
535	80.247
536	80.283
537	80.27
538	80.265
539	80.289
540	80.27
541	80.282
542	80.304
543	80.297
544	80.31
545	80.316
546	80.318
547	80.315
548	80.328
549	80.335
550	80.326
551	80.321
552	80.328
553	80.351
554	80.361
555	80.368
556	80.377
557	80.394
558	80.409
559	80.406
560	80.396
561	80.399
562	80.405
563	80.408
564	80.417
565	80.393
566	80.406
567	80.42
568	80.443
569	80.436
570	80.433
571	80.447
572	80.46
573	80.46
574	80.459
575	80.47
576	80.459
577	80.476
578	80.486
579	80.471
580	80.472
581	80.478
582	80.48
583	80.496
584	80.498
585	80.503
586	80.514
587	80.512
588	80.509
589	80.506
590	80.526
591	80.521
592	80.539
593	80.546
594	80.541
595	80.569
596	80.562
597	80.56
598	80.57
599	80.566
600	80.566
601	80.585
602	80.582
603	80.594
604	80.606
605	80.595
606	80.602
607	80.609
608	80.619
609	80.612
610	80.613
611	80.654
612	80.653
613	80.656
614	80.672
615	80.668
616	80.69
617	80.7
618	80.691
619	80.705
620	80.713
621	80.693
622	80.702
623	80.695
624	80.703
625	80.709
626	80.706
627	80.723
628	80.715
629	80.731
630	80.741
631	80.751
632	80.776
633	80.755
634	80.769
635	80.788
636	80.766
637	80.79
638	80.798
639	80.781
640	80.784
641	80.785
642	80.793
643	80.804
644	80.806
645	80.801
646	80.808
647	80.835
648	80.83
649	80.833
650	80.835
651	80.833
652	80.851
653	80.856
654	80.855
655	80.881
656	80.882
657	80.868
658	80.872
659	80.888
660	80.9
661	80.882
662	80.903
663	80.915
664	80.906
665	80.91
666	80.894
667	80.901
668	80.929
669	80.926
670	80.925
671	80.929
672	80.934
673	80.931
674	80.94
675	80.95
676	80.958
677	80.945
678	80.956
679	80.961
680	80.963
681	80.99
682	80.978
683	80.979
684	80.991
685	80.992
686	81.012
687	81.006
688	81.005
689	81.018
690	81.02
691	81.017
692	81.014
693	81.035
694	81.042
695	81.031
696	81.053
697	81.05
698	81.06
699	81.078
700	81.066
701	81.077
702	81.099
703	81.108
704	81.114
705	81.111
706	81.088
707	81.102
708	81.109
709	81.099
710	81.126
711	81.138
712	81.142
713	81.153
714	81.156
715	81.167
716	81.175
717	81.164
718	81.172
719	81.178
720	81.164
721	81.17
722	81.184
723	81.191
724	81.203
725	81.195
726	81.223
727	81.22
728	81.213
729	81.239
730	81.221
731	81.222
732	81.229
733	81.246
734	81.247
735	81.254
736	81.256
737	81.266
738	81.286
739	81.276
740	81.281
741	81.298
742	81.305
743	81.315
744	81.327
745	81.332
746	81.339
747	81.333
748	81.338
749	81.359
750	81.345
751	81.368
752	81.362
753	81.341
754	81.366
755	81.365
756	81.392
757	81.398
758	81.386
759	81.409
760	81.401
761	81.395
762	81.405
763	81.416
764	81.434
765	81.421
766	81.416
767	81.435
768	81.425
769	81.422
770	81.438
771	81.449
772	81.463
773	81.469
774	81.499
775	81.483
776	81.446
777	81.458
778	81.47
779	81.456
780	81.454
781	81.491
782	81.478
783	81.493
784	81.512
785	81.498
786	81.493
787	81.499
788	81.535
789	81.496
790	81.487
791	81.547
792	81.524
793	81.504
794	81.529
795	81.559
796	81.553
797	81.546
798	81.537
799	81.565
800	81.578
801	81.543
802	81.564
803	81.59
804	81.572
805	81.586
806	81.583
807	81.588
808	81.609
809	81.599
810	81.602
811	81.611
812	81.602
813	81.605
814	81.634
815	81.652
816	81.637
817	81.646
818	81.66
819	81.666
820	81.677
821	81.685
822	81.677
823	81.671
824	81.689
825	81.691
826	81.698
827	81.715
828	81.732
829	81.71
830	81.714
831	81.737
832	81.744
833	81.754
834	81.739
835	81.739
836	81.786
837	81.772
838	81.767
839	81.772
840	81.752
841	81.792
842	81.798
843	81.799
844	81.816
845	81.806
846	81.82
847	81.84
848	81.838
849	81.834
850	81.823
851	81.826
852	81.843
853	81.838
854	81.836
855	81.854
856	81.852
857	81.865
858	81.87
859	81.878
860	81.884
861	81.87
862	81.884
863	81.904
864	81.893
865	81.895
866	81.918
867	81.921
868	81.923
869	81.934
870	81.927
871	81.924
872	81.932
873	81.933
874	81.948
875	81.949
876	81.946
877	81.946
878	81.953
879	81.971
880	81.966
881	81.965
882	81.979
883	81.983
884	81.975
885	81.996
886	81.99
887	81.981
888	82.004
889	82.005
890	82.009
891	82.005
892	82.017
893	82.03
894	82.023
895	82.022
896	82.033
897	82.029
898	82.024
899	82.039
900	82.036
901	82.045
902	82.062
903	82.047
904	82.05
905	82.058
906	82.081
907	82.062
908	82.059
909	82.078
910	82.073
911	82.084
912	82.075
913	82.074
914	82.092
915	82.094
916	82.091
917	82.1
918	82.1
919	82.096
920	82.115
921	82.097
922	82.08
923	82.1
924	82.104
925	82.104
926	82.103
927	82.113
928	82.124
929	82.119
930	82.118
931	82.131
932	82.149
933	82.131
934	82.144
935	82.146
936	82.137
937	82.141
938	82.147
939	82.165
940	82.164
941	82.169
942	82.159
943	82.175
944	82.169
945	82.154
946	82.166
947	82.156
948	82.171
949	82.164
950	82.171
951	82.18
952	82.176
953	82.189
954	82.195
955	82.181
956	82.176
957	82.19
958	82.184
959	82.177
960	82.195
961	82.193
962	82.195
963	82.181
964	82.185
965	82.213
966	82.208
967	82.203
968	82.199
969	82.212
970	82.215
971	82.2
972	82.199
973	82.199
974	82.186
975	82.186
976	82.199
977	82.218
978	82.204
979	82.199
980	82.208
981	82.204
982	82.212
983	82.215
984	82.207
985	82.217
986	82.213
987	82.21
988	82.223
989	82.214
990	82.201
991	82.208
992	82.212
993	82.187
994	82.199
995	82.202
996	82.185
997	82.185
998	82.193
999	82.187
1000	82.162
1001	82.193
1002	82.186
1003	82.182
1004	82.195
1005	82.186
1006	82.183
1007	82.191
1008	82.191
1009	82.191
1010	82.187
1011	82.169
1012	82.18
1013	82.184
1014	82.191
1015	82.182
1016	82.181
1017	82.19
1018	82.178
1019	82.175
1020	82.181
1021	82.188
1022	82.159
1023	82.145
1024	82.146
1025	82.153
1026	82.169
1027	82.151
1028	82.138
1029	82.146
1030	82.138
1031	82.134
1032	82.141
1033	82.144
1034	82.139
1035	82.132
1036	82.123
1037	82.136
1038	82.127
1039	82.106
1040	82.126
1041	82.132
1042	82.125
1043	82.116
1044	82.102
1045	82.115
1046	82.102
1047	82.102
1048	82.098
1049	82.069
1050	82.075
1051	82.069
1052	82.07
1053	82.073
1054	82.058
1055	82.053
1056	82.066
1057	82.059
1058	82.056
1059	82.055
1060	82.048
1061	82.055
1062	82.061
1063	82.057
1064	82.05
1065	82.043
1066	82.015
1067	82.023
1068	82.022
1069	82.009
1070	82.006
1071	82.005
1072	82.002
1073	81.996
1074	82.01
1075	81.984
1076	81.995
1077	81.987
1078	81.955
1079	81.946
1080	81.918
1081	81.944
1082	81.939
1083	81.913
1084	81.926
1085	81.915
1086	81.932
1087	81.924
1088	81.919
1089	81.924
1090	81.881
1091	81.874
1092	81.905
1093	81.894
1094	81.888
1095	81.905
1096	81.881
1097	81.888
1098	81.892
1099	81.881
1100	81.887
1101	81.882
1102	81.873
1103	81.873
1104	81.87
1105	81.863
1106	81.862
1107	81.849
1108	81.854
1109	81.852
1110	81.817
1111	81.835
1112	81.845
1113	81.829
1114	81.841
1115	81.834
1116	81.82
1117	81.826
1118	81.807
1119	81.796
1120	81.815
1121	81.82
1122	81.784
1123	81.789
1124	81.783
1125	81.764
1126	81.772
1127	81.751
1128	81.754
1129	81.76
1130	81.747
1131	81.756
1132	81.747
1133	81.747
1134	81.746
1135	81.733
1136	81.739
1137	81.711
1138	81.712
1139	81.719
1140	81.698
1141	81.712
1142	81.712
1143	81.697
1144	81.693
1145	81.712
1146	81.708
1147	81.694
1148	81.702
1149	81.688
1150	81.685
1151	81.699
1152	81.687
1153	81.661
1154	81.648
1155	81.65
1156	81.658
1157	81.654
1158	81.652
1159	81.658
1160	81.655
1161	81.657
1162	81.645
1163	81.616
1164	81.626
1165	81.618
1166	81.599
1167	81.61
1168	81.614
1169	81.609
1170	81.6
1171	81.595
1172	81.59
1173	81.593
1174	81.588
1175	81.581
1176	81.59
1177	81.566
1178	81.563
1179	81.582
1180	81.567
1181	81.561
1182	81.559
1183	81.552
1184	81.548
1185	81.541
1186	81.55
1187	81.554
1188	81.544
1189	81.542
1190	81.539
1191	81.528
1192	81.526
1193	81.514
1194	81.522
1195	81.522
1196	81.506
1197	81.513
1198	81.517
1199	81.505
1200	81.48
1201	81.508
1202	81.514
1203	81.481
1204	81.495
1205	81.502
1206	81.481
1207	81.465
1208	81.474
1209	81.465
1210	81.464
1211	81.491
1212	81.474
1213	81.463
1214	81.475
1215	81.471
1216	81.473
1217	81.468
1218	81.461
1219	81.457
1220	81.471
1221	81.479
1222	81.476
1223	81.457
1224	81.444
1225	81.452
1226	81.449
1227	81.436
1228	81.415
1229	81.408
1230	81.432
1231	81.418
1232	81.418
1233	81.43
1234	81.427
1235	81.442
1236	81.445
1237	81.424
1238	81.403
1239	81.397
1240	81.409
1241	81.407
1242	81.397
1243	81.393
1244	81.401
1245	81.392
1246	81.396
1247	81.401
1248	81.382
1249	81.386
1250	81.393
1251	81.391
1252	81.391
1253	81.384
1254	81.357
1255	81.367
1256	81.38
1257	81.368
1258	81.38
1259	81.392
1260	81.375
1261	81.371
1262	81.375
1263	81.366
1264	81.366
1265	81.353
1266	81.363
1267	81.37
1268	81.349
1269	81.363
1270	81.364
1271	81.36
1272	81.351
1273	81.357
1274	81.369
1275	81.345
1276	81.34
1277	81.34
1278	81.368
1279	81.348
1280	81.341
1281	81.336
1282	81.348
1283	81.358
1284	81.329
1285	81.348
1286	81.368
1287	81.36
1288	81.342
1289	81.331
1290	81.343
1291	81.343
1292	81.343
1293	81.33
1294	81.327
1295	81.328
1296	81.324
1297	81.311
1298	81.316
1299	81.316
1300	81.299
1301	81.303
1302	81.312
1303	81.313
1304	81.306
1305	81.287
1306	81.301
1307	81.293
1308	81.283
1309	81.318
1310	81.303
1311	81.296
1312	81.286
1313	81.269
1314	81.283
1315	81.275
1316	81.26
1317	81.264
1318	81.266
1319	81.264
1320	81.243
1321	81.248
1322	81.245
1323	81.237
1324	81.269
1325	81.26
1326	81.242
1327	81.254
1328	81.255
1329	81.239
1330	81.253
1331	81.247
1332	81.23
1333	81.24
1334	81.223
1335	81.221
1336	81.223
1337	81.215
1338	81.219
1339	81.223
1340	81.203
1341	81.186
1342	81.206
1343	81.201
1344	81.207
1345	81.198
1346	81.196
1347	81.192
1348	81.167
1349	81.172
1350	81.176
1351	81.165
1352	81.155
1353	81.155
1354	81.146
1355	81.155
1356	81.159
1357	81.151
1358	81.152
1359	81.145
1360	81.157
1361	81.144
1362	81.138
1363	81.147
1364	81.15
1365	81.153
1366	81.158
1367	81.168
1368	81.155
1369	81.14
1370	81.157
1371	81.138
1372	81.155
1373	81.169
1374	81.142
1375	81.127
1376	81.138
1377	81.144
1378	81.138
1379	81.128
1380	81.139
1381	81.139
1382	81.108
1383	81.104
1384	81.093
1385	81.084
1386	81.085
1387	81.074
1388	81.073
1389	81.071
1390	81.091
1391	81.087
1392	81.069
1393	81.093
1394	81.071
1395	81.071
1396	81.078
1397	81.061
1398	81.067
1399	81.057
1400	81.045
1401	81.027
1402	81.03
1403	81.014
1404	80.972
1405	80.987
1406	80.975
1407	80.955
1408	80.934
1409	80.926
1410	80.932
1411	80.918
1412	80.949
1413	80.971
1414	80.985
1415	81.024
1416	81.034
1417	81.042
1418	81.065
1419	81.076
1420	81.081
1421	81.077
1422	81.09
1423	81.076
1424	81.06
1425	81.086
1426	81.084
1427	81.079
1428	81.08
1429	81.071
1430	81.085
1431	81.075
1432	81.073
1433	81.073
1434	81.086
1435	81.072
1436	81.052
1437	81.068
1438	81.063
1439	81.066
1440	81.062
1441	81.058
1442	81.058
1443	81.058
1444	81.076
1445	81.066
1446	81.079
1447	81.082
1448	81.06
1449	81.062
1450	81.084
1451	81.079
1452	81.063
1453	81.085
1454	81.079
1455	81.081
1456	81.088
1457	81.082
1458	81.088
1459	81.093
1460	81.088
1461	81.086
1462	81.083
1463	81.074
1464	81.083
1465	81.065
1466	81.063
1467	81.071
1468	81.057
1469	81.055
1470	81.077
1471	81.084
1472	81.079
1473	81.091
1474	81.096
1475	81.082
1476	81.071
1477	81.071
1478	81.071
1479	81.064
1480	81.092
1481	81.109
1482	81.076
1483	81.076
1484	81.09
1485	81.091
1486	81.084
1487	81.065
1488	81.075
1489	81.09
1490	81.073
1491	81.081
1492	81.075
1493	81.069
1494	81.081
1495	81.062
1496	81.076
1497	81.083
1498	81.056
1499	81.051
1500	81.062
1501	81.075
1502	81.064
1503	81.069
1504	81.059
1505	81.071
1506	81.078
1507	81.069
1508	81.063
1509	81.061
1510	81.075
1511	81.087
1512	81.072
1513	81.083
1514	81.087
1515	81.066
1516	81.067
1517	81.063
1518	81.058
1519	81.077
1520	81.066
1521	81.056
1522	81.072
1523	81.075
1524	81.068
1525	81.052
1526	81.037
1527	81.037
1528	81.028
1529	81.036
1530	81.025
1531	81.017
1532	81.002
1533	80.974
1534	80.97
1535	80.98
1536	80.982
1537	80.982
1538	80.991
1539	81.009
1540	81.014
1541	81.057
1542	81.081
1543	81.084
1544	81.094
1545	81.126
1546	81.159
1547	81.149
1548	81.161
1549	81.166
1550	81.15
1551	81.165
1552	81.166
1553	81.165
1554	81.191
1555	81.197
1556	81.17
1557	81.185
1558	81.211
1559	81.197
1560	81.203
1561	81.223
1562	81.211
1563	81.2
1564	81.22
1565	81.226
1566	81.219
1567	81.21
1568	81.212
1569	81.219
1570	81.219
1571	81.224
1572	81.221
1573	81.219
1574	81.235
1575	81.223
1576	81.218
1577	81.244
1578	81.239
1579	81.248
1580	81.262
1581	81.24
1582	81.26
1583	81.267
1584	81.267
1585	81.267
1586	81.263
1587	81.271
1588	81.266
1589	81.282
1590	81.288
1591	81.295
1592	81.302
1593	81.307
1594	81.284
1595	81.293
1596	81.299
1597	81.285
1598	81.298
1599	81.28
1600	81.274
1601	81.307
1602	81.312
1603	81.311
1604	81.306
1605	81.298
1606	81.318
1607	81.329
1608	81.306
1609	81.321
1610	81.315
1611	81.302
1612	81.325
1613	81.318
1614	81.322
1615	81.347
1616	81.337
1617	81.343
1618	81.343
1619	81.325
1620	81.345
1621	81.358
1622	81.357
1623	81.382
1624	81.393
1625	81.391
1626	81.413
1627	81.402
1628	81.38
1629	81.383
1630	81.388
1631	81.385
1632	81.41
1633	81.419
1634	81.411
1635	81.407
1636	81.422
1637	81.424
1638	81.408
1639	81.419
1640	81.416
1641	81.418
1642	81.426
1643	81.432
1644	81.431
1645	81.435
