Freq(Hz)	SPL(dB)
20	72.028
21	72.545
22	74.098
23	75.452
24	76.247
25	76.609
26	76.892
27	77.151
28	77.552
29	77.917
30	78.531
31	79.109
32	79.51
33	79.717
34	79.891
35	80.06
36	80.189
37	80.361
38	80.54
39	80.719
40	80.809
41	80.913
42	80.981
43	81.027
44	81.068
45	81.122
46	81.186
47	81.244
48	81.277
49	81.387
50	81.479
51	81.475
52	81.522
53	81.575
54	81.619
55	81.639
56	81.641
57	81.628
58	81.599
59	81.592
60	81.578
61	81.536
62	81.497
63	81.436
64	81.348
65	81.245
66	81.179
67	81.06
68	80.954
69	80.85
70	80.781
71	80.669
72	80.549
73	80.48
74	80.379
75	80.286
76	80.187
77	80.122
78	80.055
79	79.976
80	79.914
81	79.903
82	79.854
83	79.808
84	79.783
85	79.766
86	79.752
87	79.736
88	79.731
89	79.713
90	79.703
91	79.694
92	79.679
93	79.671
94	79.698
95	79.677
96	79.671
97	79.691
98	79.68
99	79.675
100	79.681
101	79.674
102	79.659
103	79.675
104	79.679
105	79.653
106	79.66
107	79.66
108	79.642
109	79.657
110	79.666
111	79.646
112	79.645
113	79.629
114	79.614
115	79.62
116	79.622
117	79.616
118	79.626
119	79.621
120	79.612
121	79.611
122	79.604
123	79.615
124	79.607
125	79.606
126	79.598
127	79.615
128	79.61
129	79.593
130	79.606
131	79.596
132	79.595
133	79.598
134	79.599
135	79.612
136	79.62
137	79.61
138	79.599
139	79.61
140	79.613
141	79.586
142	79.589
143	79.6
144	79.587
145	79.601
146	79.593
147	79.586
148	79.591
149	79.594
150	79.599
151	79.604
152	79.614
153	79.605
154	79.61
155	79.62
156	79.602
157	79.591
158	79.608
159	79.607
160	79.609
161	79.624
162	79.633
163	79.63
164	79.653
165	79.653
166	79.646
167	79.666
168	79.675
169	79.664
170	79.664
171	79.691
172	79.689
173	79.671
174	79.68
175	79.666
176	79.653
177	79.68
178	79.663
179	79.639
180	79.621
181	79.607
182	79.613
183	79.586
184	79.579
185	79.566
186	79.527
187	79.507
188	79.493
189	79.467
190	79.444
191	79.422
192	79.409
193	79.386
194	79.337
195	79.324
196	79.323
197	79.279
198	79.256
199	79.228
200	79.197
201	79.179
202	79.171
203	79.155
204	79.117
205	79.095
206	79.047
207	79.017
208	79.004
209	78.945
210	78.916
211	78.886
212	78.836
213	78.806
214	78.773
215	78.741
216	78.683
217	78.661
218	78.632
219	78.57
220	78.53
221	78.465
222	78.44
223	78.399
224	78.349
225	78.309
226	78.265
227	78.214
228	78.19
229	78.141
230	78.082
231	78.03
232	77.973
233	77.95
234	77.879
235	77.828
236	77.779
237	77.732
238	77.683
239	77.623
240	77.573
241	77.518
242	77.452
243	77.371
244	77.332
245	77.27
246	77.193
247	77.12
248	77.086
249	77.024
250	76.94
251	76.915
252	76.902
253	76.907
254	76.957
255	76.947
256	76.944
257	76.99
258	76.991
259	76.988
260	77.017
261	77.007
262	77.012
263	77.038
264	77.041
265	77.068
266	77.114
267	77.155
268	77.162
269	77.203
270	77.236
271	77.264
272	77.321
273	77.379
274	77.39
275	77.429
276	77.463
277	77.513
278	77.535
279	77.554
280	77.58
281	77.61
282	77.657
283	77.663
284	77.691
285	77.692
286	77.726
287	77.742
288	77.739
289	77.76
290	77.772
291	77.77
292	77.759
293	77.771
294	77.78
295	77.786
296	77.795
297	77.785
298	77.791
299	77.772
300	77.772
301	77.793
302	77.765
303	77.758
304	77.756
305	77.737
306	77.732
307	77.728
308	77.705
309	77.682
310	77.675
311	77.674
312	77.656
313	77.633
314	77.628
315	77.622
316	77.6
317	77.574
318	77.569
319	77.559
320	77.533
321	77.5
322	77.484
323	77.473
324	77.451
325	77.435
326	77.425
327	77.416
328	77.384
329	77.349
330	77.342
331	77.304
332	77.281
333	77.261
334	77.218
335	77.217
336	77.174
337	77.161
338	77.15
339	77.108
340	77.103
341	77.083
342	77.041
343	77.032
344	77.013
345	76.972
346	76.953
347	76.932
348	76.923
349	76.889
350	76.858
351	76.837
352	76.827
353	76.831
354	76.762
355	76.753
356	76.75
357	76.709
358	76.711
359	76.694
360	76.677
361	76.676
362	76.638
363	76.626
364	76.601
365	76.584
366	76.575
367	76.56
368	76.577
369	76.542
370	76.517
371	76.521
372	76.497
373	76.467
374	76.458
375	76.459
376	76.457
377	76.438
378	76.428
379	76.404
380	76.382
381	76.368
382	76.367
383	76.357
384	76.324
385	76.317
386	76.303
387	76.301
388	76.302
389	76.283
390	76.256
391	76.246
392	76.219
393	76.205
394	76.191
395	76.168
396	76.148
397	76.126
398	76.127
399	76.099
400	76.096
401	76.091
402	76.08
403	76.113
404	76.12
405	76.142
406	76.169
407	76.171
408	76.192
409	76.22
410	76.225
411	76.224
412	76.222
413	76.226
414	76.216
415	76.214
416	76.233
417	76.233
418	76.206
419	76.197
420	76.204
421	76.191
422	76.169
423	76.159
424	76.13
425	76.12
426	76.116
427	76.112
428	76.12
429	76.101
430	76.099
431	76.079
432	76.072
433	76.073
434	76.066
435	76.049
436	76.036
437	76.035
438	76.027
439	76.023
440	76.01
441	75.997
442	75.975
443	75.969
444	75.971
445	75.956
446	75.952
447	75.947
448	75.939
449	75.946
450	75.945
451	75.95
452	75.942
453	75.946
454	75.942
455	75.93
456	75.943
457	75.94
458	75.944
459	75.943
460	75.931
461	75.939
462	75.955
463	75.949
464	75.951
465	75.94
466	75.958
467	75.966
468	75.953
469	75.98
470	75.964
471	75.973
472	75.99
473	75.958
474	75.961
475	75.961
476	75.967
477	75.969
478	75.968
479	75.982
480	76.009
481	75.999
482	76.001
483	76.035
484	76.002
485	76.018
486	76.02
487	76.013
488	76.036
489	76.03
490	76.054
491	76.066
492	76.046
493	76.054
494	76.068
495	76.068
496	76.066
497	76.063
498	76.089
499	76.109
500	76.111
501	76.133
502	76.136
503	76.134
504	76.137
505	76.148
506	76.154
507	76.155
508	76.177
509	76.214
510	76.202
511	76.208
512	76.207
513	76.205
514	76.221
515	76.224
516	76.232
517	76.245
518	76.248
519	76.242
520	76.26
521	76.253
522	76.255
523	76.263
524	76.278
525	76.298
526	76.293
527	76.299
528	76.287
529	76.279
530	76.299
531	76.317
532	76.312
533	76.331
534	76.327
535	76.328
536	76.355
537	76.365
538	76.373
539	76.382
540	76.398
541	76.399
542	76.398
543	76.395
544	76.412
545	76.413
546	76.412
547	76.449
548	76.441
549	76.443
550	76.464
551	76.46
552	76.472
553	76.489
554	76.457
555	76.48
556	76.496
557	76.48
558	76.491
559	76.533
560	76.541
561	76.528
562	76.54
563	76.535
564	76.551
565	76.572
566	76.569
567	76.587
568	76.588
569	76.592
570	76.607
571	76.612
572	76.623
573	76.624
574	76.632
575	76.643
576	76.662
577	76.669
578	76.677
579	76.683
580	76.68
581	76.709
582	76.725
583	76.735
584	76.735
585	76.756
586	76.773
587	76.773
588	76.787
589	76.799
590	76.806
591	76.821
592	76.805
593	76.818
594	76.848
595	76.837
596	76.87
597	76.885
598	76.907
599	76.916
600	76.947
601	76.968
602	76.962
603	76.978
604	76.982
605	76.996
606	77.022
607	77.044
608	77.061
609	77.067
610	77.083
611	77.091
612	77.097
613	77.121
614	77.152
615	77.157
616	77.159
617	77.208
618	77.196
619	77.196
620	77.235
621	77.248
622	77.258
623	77.254
624	77.271
625	77.301
626	77.312
627	77.317
628	77.328
629	77.351
630	77.367
631	77.388
632	77.386
633	77.412
634	77.429
635	77.411
636	77.438
637	77.448
638	77.454
639	77.49
640	77.498
641	77.501
642	77.508
643	77.519
644	77.533
645	77.545
646	77.557
647	77.573
648	77.587
649	77.591
650	77.611
651	77.635
652	77.647
653	77.651
654	77.664
655	77.675
656	77.687
657	77.701
658	77.716
659	77.74
660	77.74
661	77.758
662	77.761
663	77.788
664	77.804
665	77.78
666	77.8
667	77.817
668	77.834
669	77.84
670	77.855
671	77.859
672	77.867
673	77.884
674	77.871
675	77.89
676	77.918
677	77.934
678	77.947
679	77.945
680	77.951
681	77.964
682	77.978
683	77.992
684	77.996
685	78.01
686	78.02
687	78.047
688	78.067
689	78.068
690	78.079
691	78.087
692	78.096
693	78.114
694	78.137
695	78.155
696	78.153
697	78.164
698	78.201
699	78.202
700	78.21
701	78.217
702	78.238
703	78.272
704	78.278
705	78.277
706	78.296
707	78.324
708	78.329
709	78.336
710	78.351
711	78.38
712	78.387
713	78.396
714	78.429
715	78.429
716	78.431
717	78.461
718	78.462
719	78.463
720	78.505
721	78.511
722	78.514
723	78.523
724	78.545
725	78.556
726	78.555
727	78.573
728	78.59
729	78.597
730	78.619
731	78.635
732	78.624
733	78.64
734	78.658
735	78.664
736	78.683
737	78.71
738	78.713
739	78.715
740	78.745
741	78.749
742	78.76
743	78.782
744	78.793
745	78.799
746	78.814
747	78.832
748	78.848
749	78.862
750	78.857
751	78.867
752	78.894
753	78.899
754	78.894
755	78.903
756	78.915
757	78.917
758	78.95
759	78.958
760	78.948
761	78.973
762	78.976
763	78.985
764	79.003
765	79.004
766	79.024
767	79.039
768	79.044
769	79.052
770	79.068
771	79.086
772	79.088
773	79.095
774	79.126
775	79.128
776	79.148
777	79.158
778	79.181
779	79.209
780	79.203
781	79.214
782	79.241
783	79.245
784	79.25
785	79.277
786	79.291
787	79.289
788	79.296
789	79.318
790	79.332
791	79.34
792	79.36
793	79.393
794	79.402
795	79.428
796	79.457
797	79.463
798	79.481
799	79.493
800	79.516
801	79.533
802	79.546
803	79.574
804	79.601
805	79.61
806	79.636
807	79.651
808	79.68
809	79.699
810	79.713
811	79.734
812	79.74
813	79.771
814	79.82
815	79.826
816	79.839
817	79.872
818	79.879
819	79.894
820	79.907
821	79.927
822	79.956
823	79.975
824	79.987
825	80.024
826	80.048
827	80.049
828	80.081
829	80.096
830	80.106
831	80.124
832	80.149
833	80.158
834	80.17
835	80.183
836	80.205
837	80.22
838	80.225
839	80.244
840	80.269
841	80.288
842	80.29
843	80.298
844	80.306
845	80.325
846	80.339
847	80.345
848	80.361
849	80.362
850	80.366
851	80.399
852	80.397
853	80.392
854	80.412
855	80.424
856	80.429
857	80.429
858	80.424
859	80.447
860	80.454
861	80.451
862	80.463
863	80.463
864	80.465
865	80.473
866	80.48
867	80.469
868	80.475
869	80.496
870	80.496
871	80.5
872	80.502
873	80.514
874	80.518
875	80.518
876	80.512
877	80.511
878	80.53
879	80.546
880	80.561
881	80.565
882	80.559
883	80.571
884	80.586
885	80.587
886	80.597
887	80.593
888	80.609
889	80.632
890	80.636
891	80.642
892	80.664
893	80.678
894	80.687
895	80.703
896	80.719
897	80.734
898	80.732
899	80.748
900	80.77
901	80.786
902	80.802
903	80.811
904	80.826
905	80.845
906	80.883
907	80.893
908	80.916
909	80.926
910	80.943
911	80.971
912	80.988
913	81.012
914	81.023
915	81.034
916	81.057
917	81.078
918	81.102
919	81.123
920	81.142
921	81.162
922	81.189
923	81.211
924	81.225
925	81.273
926	81.313
927	81.337
928	81.376
929	81.402
930	81.435
931	81.468
932	81.508
933	81.544
934	81.601
935	81.627
936	81.661
937	81.713
938	81.74
939	81.772
940	81.815
941	81.851
942	81.876
943	81.92
944	81.964
945	82.005
946	82.025
947	82.077
948	82.116
949	82.147
950	82.183
951	82.218
952	82.253
953	82.295
954	82.335
955	82.358
956	82.385
957	82.41
958	82.452
959	82.472
960	82.522
961	82.554
962	82.577
963	82.612
964	82.639
965	82.672
966	82.714
967	82.746
968	82.768
969	82.8
970	82.821
971	82.851
972	82.866
973	82.898
974	82.931
975	82.955
976	82.968
977	82.989
978	83.035
979	83.047
980	83.062
981	83.086
982	83.097
983	83.123
984	83.147
985	83.162
986	83.182
987	83.191
988	83.206
989	83.227
990	83.246
991	83.261
992	83.273
993	83.287
994	83.296
995	83.321
996	83.341
997	83.357
998	83.37
999	83.376
1000	83.403
1001	83.415
1002	83.407
1003	83.423
1004	83.441
1005	83.446
1006	83.459
1007	83.465
1008	83.488
1009	83.496
1010	83.503
1011	83.517
1012	83.51
1013	83.521
1014	83.533
1015	83.537
1016	83.552
1017	83.559
1018	83.574
1019	83.583
1020	83.582
1021	83.589
1022	83.599
1023	83.609
1024	83.613
1025	83.623
1026	83.63
1027	83.636
1028	83.639
1029	83.646
1030	83.644
1031	83.649
1032	83.661
1033	83.658
1034	83.666
1035	83.667
1036	83.664
1037	83.677
1038	83.678
1039	83.676
1040	83.681
1041	83.686
1042	83.69
1043	83.695
1044	83.696
1045	83.695
1046	83.692
1047	83.694
1048	83.7
1049	83.696
1050	83.699
1051	83.698
1052	83.697
1053	83.704
1054	83.702
1055	83.706
1056	83.709
1057	83.708
1058	83.714
1059	83.71
1060	83.706
1061	83.713
1062	83.705
1063	83.691
1064	83.7
1065	83.698
1066	83.694
1067	83.694
1068	83.699
1069	83.701
1070	83.689
1071	83.69
1072	83.69
1073	83.693
1074	83.682
1075	83.688
1076	83.688
1077	83.681
1078	83.679
1079	83.675
1080	83.675
1081	83.661
1082	83.672
1083	83.672
1084	83.656
1085	83.663
1086	83.661
1087	83.661
1088	83.654
1089	83.652
1090	83.641
1091	83.637
1092	83.648
1093	83.635
1094	83.623
1095	83.631
1096	83.641
1097	83.621
1098	83.613
1099	83.612
1100	83.609
1101	83.605
1102	83.599
1103	83.593
1104	83.588
1105	83.58
1106	83.57
1107	83.571
1108	83.57
1109	83.567
1110	83.568
1111	83.553
1112	83.552
1113	83.544
1114	83.538
1115	83.535
1116	83.524
1117	83.524
1118	83.522
1119	83.52
1120	83.513
1121	83.511
1122	83.502
1123	83.487
1124	83.491
1125	83.485
1126	83.479
1127	83.474
1128	83.463
1129	83.458
1130	83.455
1131	83.45
1132	83.451
1133	83.441
1134	83.441
1135	83.432
1136	83.419
1137	83.427
1138	83.421
1139	83.412
1140	83.403
1141	83.402
1142	83.394
1143	83.393
1144	83.386
1145	83.37
1146	83.37
1147	83.36
1148	83.355
1149	83.356
1150	83.35
1151	83.345
1152	83.338
1153	83.34
1154	83.323
1155	83.315
1156	83.319
1157	83.277
1158	83.28
1159	83.284
1160	83.273
1161	83.278
1162	83.277
1163	83.276
1164	83.264
1165	83.256
1166	83.247
1167	83.238
1168	83.234
1169	83.222
1170	83.214
1171	83.217
1172	83.201
1173	83.195
1174	83.198
1175	83.187
1176	83.185
1177	83.174
1178	83.171
1179	83.161
1180	83.154
1181	83.147
1182	83.138
1183	83.13
1184	83.128
1185	83.12
1186	83.106
1187	83.1
1188	83.092
1189	83.095
1190	83.087
1191	83.074
1192	83.064
1193	83.052
1194	83.058
1195	83.049
1196	83.033
1197	83.033
1198	83.016
1199	83.013
1200	83.004
1201	82.993
1202	82.994
1203	82.978
1204	82.975
1205	82.957
1206	82.95
1207	82.945
1208	82.931
1209	82.929
1210	82.919
1211	82.905
1212	82.888
1213	82.874
1214	82.867
1215	82.87
1216	82.859
1217	82.854
1218	82.851
1219	82.825
1220	82.833
1221	82.829
1222	82.807
1223	82.811
1224	82.803
1225	82.777
1226	82.765
1227	82.764
1228	82.759
1229	82.745
1230	82.735
1231	82.732
1232	82.724
1233	82.713
1234	82.712
1235	82.7
1236	82.688
1237	82.685
1238	82.676
1239	82.666
1240	82.657
1241	82.655
1242	82.641
1243	82.627
1244	82.615
1245	82.609
1246	82.607
1247	82.603
1248	82.594
1249	82.579
1250	82.572
1251	82.572
1252	82.556
1253	82.543
1254	82.544
1255	82.54
1256	82.536
1257	82.518
1258	82.516
1259	82.505
1260	82.49
1261	82.488
1262	82.475
1263	82.481
1264	82.471
1265	82.455
1266	82.444
1267	82.436
1268	82.439
1269	82.43
1270	82.419
1271	82.415
1272	82.39
1273	82.381
1274	82.39
1275	82.371
1276	82.353
1277	82.364
1278	82.354
1279	82.346
1280	82.339
1281	82.321
1282	82.327
1283	82.321
1284	82.314
1285	82.304
1286	82.288
1287	82.269
1288	82.268
1289	82.251
1290	82.246
1291	82.246
1292	82.236
1293	82.232
1294	82.219
1295	82.223
1296	82.22
1297	82.208
1298	82.186
1299	82.176
1300	82.167
1301	82.142
1302	82.144
1303	82.148
1304	82.141
1305	82.126
1306	82.122
1307	82.122
1308	82.098
1309	82.093
1310	82.083
1311	82.072
1312	82.076
1313	82.069
1314	82.062
1315	82.043
1316	82.026
1317	82.028
1318	82.02
1319	81.996
1320	82.001
1321	81.997
1322	81.978
1323	81.976
1324	81.96
1325	81.962
1326	81.969
1327	81.952
1328	81.939
1329	81.924
1330	81.916
1331	81.901
1332	81.894
1333	81.9
1334	81.896
1335	81.88
1336	81.866
1337	81.854
1338	81.846
1339	81.839
1340	81.832
1341	81.808
1342	81.801
1343	81.803
1344	81.774
1345	81.764
1346	81.763
1347	81.756
1348	81.757
1349	81.737
1350	81.718
1351	81.715
1352	81.707
1353	81.693
1354	81.681
1355	81.665
1356	81.654
1357	81.647
1358	81.641
1359	81.628
1360	81.607
1361	81.592
1362	81.58
1363	81.572
1364	81.564
1365	81.548
1366	81.532
1367	81.505
1368	81.497
1369	81.486
1370	81.458
1371	81.461
1372	81.441
1373	81.421
1374	81.408
1375	81.392
1376	81.366
1377	81.354
1378	81.343
1379	81.326
1380	81.311
1381	81.291
1382	81.285
1383	81.285
1384	81.274
1385	81.254
1386	81.247
1387	81.216
1388	81.208
1389	81.205
1390	81.178
1391	81.174
1392	81.179
1393	81.172
1394	81.175
1395	81.178
1396	81.174
1397	81.175
1398	81.177
1399	81.172
1400	81.172
1401	81.186
1402	81.191
1403	81.184
1404	81.192
1405	81.195
1406	81.181
1407	81.191
1408	81.2
1409	81.193
1410	81.196
1411	81.197
1412	81.199
1413	81.206
1414	81.197
1415	81.183
1416	81.191
1417	81.201
1418	81.219
1419	81.213
1420	81.198
1421	81.198
1422	81.2
1423	81.205
1424	81.203
1425	81.194
1426	81.197
1427	81.219
1428	81.204
1429	81.206
1430	81.209
1431	81.204
1432	81.215
1433	81.207
1434	81.193
1435	81.2
1436	81.208
1437	81.197
1438	81.196
1439	81.2
1440	81.201
1441	81.199
1442	81.195
1443	81.202
1444	81.186
1445	81.181
1446	81.18
1447	81.174
1448	81.174
1449	81.159
1450	81.164
1451	81.174
1452	81.171
1453	81.15
1454	81.159
1455	81.167
1456	81.145
1457	81.143
1458	81.147
1459	81.136
1460	81.14
1461	81.131
1462	81.114
1463	81.116
1464	81.124
1465	81.122
1466	81.113
1467	81.101
1468	81.119
1469	81.112
1470	81.096
1471	81.102
1472	81.096
1473	81.098
1474	81.086
1475	81.066
1476	81.079
1477	81.084
1478	81.074
1479	81.075
1480	81.068
1481	81.064
1482	81.073
1483	81.08
1484	81.072
1485	81.065
1486	81.078
1487	81.069
1488	81.066
1489	81.067
1490	81.051
1491	81.045
1492	81.047
1493	81.057
1494	81.039
1495	81.036
1496	81.041
1497	81.032
1498	81.046
1499	81.047
1500	81.055
1501	81.05
1502	81.048
1503	81.051
1504	81.051
1505	81.05
1506	81.044
1507	81.039
1508	81.047
1509	81.05
1510	81.034
1511	81.033
1512	81.046
1513	81.02
1514	81.028
1515	81.047
1516	81.029
1517	81.025
1518	81.024
1519	81.036
1520	81.042
1521	81.04
1522	81.037
1523	81.037
1524	81.047
1525	81.042
1526	81.036
1527	81.045
1528	81.03
1529	81.035
1530	81.04
1531	81.034
1532	81.043
1533	81.039
1534	81.039
1535	81.046
1536	81.038
1537	81.031
1538	81.036
1539	81.053
1540	81.066
1541	81.064
1542	81.065
1543	81.054
1544	81.065
1545	81.078
1546	81.069
1547	81.079
1548	81.085
1549	81.077
1550	81.086
1551	81.092
1552	81.083
1553	81.098
1554	81.09
1555	81.085
1556	81.088
1557	81.094
1558	81.098
1559	81.103
1560	81.111
1561	81.101
1562	81.103
1563	81.111
1564	81.116
1565	81.116
1566	81.118
1567	81.123
1568	81.138
1569	81.128
1570	81.134
1571	81.148
1572	81.132
1573	81.143
1574	81.154
1575	81.145
1576	81.164
1577	81.156
1578	81.154
1579	81.17
1580	81.16
1581	81.174
1582	81.172
1583	81.173
1584	81.181
1585	81.178
1586	81.181
1587	81.177
1588	81.194
1589	81.209
1590	81.186
1591	81.197
1592	81.212
1593	81.208
1594	81.204
1595	81.216
1596	81.22
1597	81.225
1598	81.226
1599	81.229
1600	81.243
1601	81.242
1602	81.246
1603	81.243
1604	81.245
1605	81.258
1606	81.256
1607	81.26
1608	81.264
1609	81.268
1610	81.271
1611	81.27
1612	81.28
1613	81.286
1614	81.285
1615	81.298
1616	81.297
1617	81.307
1618	81.317
1619	81.322
1620	81.328
1621	81.319
1622	81.324
1623	81.334
1624	81.338
1625	81.337
1626	81.342
1627	81.354
1628	81.35
1629	81.358
1630	81.365
1631	81.364
1632	81.367
1633	81.37
1634	81.377
1635	81.374
1636	81.381
1637	81.386
1638	81.389
1639	81.397
1640	81.4
1641	81.398
1642	81.415
1643	81.424
1644	81.422
1645	81.426
1646	81.433
1647	81.448
1648	81.445
1649	81.445
1650	81.453
1651	81.468
