Freq(Hz)	SPL(dB)
20	77.938
21	78.077
22	78.356
23	78.477
24	78.618
25	78.716
26	78.861
27	79.019
28	79.224
29	79.344
30	79.504
31	79.633
32	79.695
33	79.717
34	79.795
35	79.852
36	79.902
37	80.021
38	80.146
39	80.206
40	80.209
41	80.255
42	80.32
43	80.334
44	80.332
45	80.391
46	80.435
47	80.467
48	80.533
49	80.638
50	80.685
51	80.674
52	80.748
53	80.791
54	80.843
55	80.865
56	80.89
57	80.906
58	80.899
59	80.934
60	80.967
61	80.972
62	80.974
63	80.982
64	80.988
65	80.958
66	80.947
67	80.933
68	80.942
69	80.953
70	80.96
71	80.985
72	80.991
73	81.008
74	81.037
75	81.053
76	81.065
77	81.074
78	81.1
79	81.112
80	81.122
81	81.133
82	81.173
83	81.196
84	81.198
85	81.199
86	81.228
87	81.272
88	81.299
89	81.306
90	81.308
91	81.353
92	81.366
93	81.394
94	81.406
95	81.418
96	81.436
97	81.437
98	81.456
99	81.479
100	81.495
101	81.52
102	81.541
103	81.548
104	81.571
105	81.587
106	81.597
107	81.612
108	81.625
109	81.634
110	81.666
111	81.681
112	81.675
113	81.683
114	81.689
115	81.684
116	81.693
117	81.704
118	81.709
119	81.714
120	81.719
121	81.732
122	81.733
123	81.739
124	81.752
125	81.749
126	81.743
127	81.748
128	81.747
129	81.755
130	81.762
131	81.772
132	81.772
133	81.763
134	81.778
135	81.784
136	81.766
137	81.778
138	81.78
139	81.782
140	81.785
141	81.776
142	81.798
143	81.786
144	81.8
145	81.796
146	81.787
147	81.793
148	81.766
149	81.774
150	81.776
151	81.774
152	81.791
153	81.774
154	81.772
155	81.776
156	81.76
157	81.753
158	81.751
159	81.752
160	81.757
161	81.747
162	81.752
163	81.748
164	81.745
165	81.748
166	81.736
167	81.747
168	81.747
169	81.759
170	81.77
171	81.762
172	81.786
173	81.789
174	81.801
175	81.813
176	81.811
177	81.829
178	81.842
179	81.849
180	81.861
181	81.881
182	81.882
183	81.884
184	81.914
185	81.912
186	81.925
187	81.924
188	81.925
189	81.944
190	81.948
191	81.943
192	81.957
193	81.977
194	81.958
195	81.982
196	81.99
197	81.985
198	82.025
199	82.046
200	82.037
201	82.038
202	82.042
203	82.036
204	82.043
205	82.052
206	82.07
207	82.071
208	82.065
209	82.075
210	82.074
211	82.072
212	82.082
213	82.085
214	82.076
215	82.089
216	82.085
217	82.075
218	82.087
219	82.093
220	82.11
221	82.091
222	82.093
223	82.119
224	82.107
225	82.12
226	82.116
227	82.118
228	82.133
229	82.129
230	82.14
231	82.139
232	82.144
233	82.154
234	82.158
235	82.158
236	82.165
237	82.164
238	82.163
239	82.172
240	82.173
241	82.183
242	82.181
243	82.183
244	82.195
245	82.199
246	82.204
247	82.217
248	82.216
249	82.21
250	82.234
251	82.228
252	82.229
253	82.248
254	82.257
255	82.266
256	82.267
257	82.281
258	82.275
259	82.272
260	82.281
261	82.274
262	82.289
263	82.291
264	82.29
265	82.31
266	82.316
267	82.319
268	82.325
269	82.336
270	82.337
271	82.337
272	82.355
273	82.354
274	82.36
275	82.363
276	82.352
277	82.376
278	82.379
279	82.374
280	82.38
281	82.37
282	82.376
283	82.394
284	82.388
285	82.396
286	82.4
287	82.403
288	82.422
289	82.432
290	82.432
291	82.428
292	82.43
293	82.425
294	82.446
295	82.451
296	82.443
297	82.453
298	82.458
299	82.465
300	82.473
301	82.47
302	82.464
303	82.482
304	82.492
305	82.487
306	82.495
307	82.501
308	82.506
309	82.512
310	82.525
311	82.533
312	82.534
313	82.539
314	82.55
315	82.559
316	82.572
317	82.575
318	82.576
319	82.583
320	82.591
321	82.593
322	82.589
323	82.604
324	82.626
325	82.634
326	82.644
327	82.65
328	82.649
329	82.667
330	82.667
331	82.682
332	82.697
333	82.691
334	82.716
335	82.721
336	82.714
337	82.723
338	82.745
339	82.755
340	82.75
341	82.762
342	82.768
343	82.771
344	82.792
345	82.808
346	82.794
347	82.802
348	82.814
349	82.824
350	82.835
351	82.846
352	82.85
353	82.861
354	82.87
355	82.872
356	82.875
357	82.882
358	82.879
359	82.881
360	82.893
361	82.906
362	82.907
363	82.907
364	82.911
365	82.912
366	82.917
367	82.93
368	82.946
369	82.942
370	82.951
371	82.964
372	82.97
373	82.968
374	82.971
375	82.991
376	82.99
377	82.993
378	82.996
379	82.994
380	82.998
381	83.007
382	83.007
383	83.02
384	83.027
385	83.017
386	83.016
387	83.005
388	83.005
389	82.993
390	82.982
391	83.004
392	82.989
393	82.989
394	82.976
395	82.976
396	82.978
397	82.964
398	82.971
399	82.959
400	82.949
401	82.953
402	82.96
403	82.935
404	82.928
405	82.935
406	82.917
407	82.912
408	82.909
409	82.909
410	82.92
411	82.924
412	82.926
413	82.927
414	82.938
415	82.954
416	82.976
417	82.979
418	83.004
419	83.018
420	83.021
421	83.046
422	83.051
423	83.079
424	83.102
425	83.108
426	83.132
427	83.142
428	83.153
429	83.168
430	83.167
431	83.167
432	83.166
433	83.16
434	83.177
435	83.206
436	83.217
437	83.225
438	83.229
439	83.24
440	83.257
441	83.262
442	83.265
443	83.277
444	83.294
445	83.299
446	83.294
447	83.301
448	83.315
449	83.309
450	83.31
451	83.321
452	83.316
453	83.315
454	83.315
455	83.306
456	83.309
457	83.324
458	83.327
459	83.329
460	83.337
461	83.337
462	83.329
463	83.337
464	83.343
465	83.344
466	83.355
467	83.355
468	83.37
469	83.389
470	83.379
471	83.378
472	83.381
473	83.394
474	83.391
475	83.391
476	83.412
477	83.404
478	83.404
479	83.422
480	83.421
481	83.418
482	83.422
483	83.43
484	83.432
485	83.439
486	83.447
487	83.451
488	83.454
489	83.451
490	83.442
491	83.427
492	83.435
493	83.439
494	83.439
495	83.447
496	83.446
497	83.457
498	83.466
499	83.461
500	83.459
501	83.446
502	83.451
503	83.465
504	83.468
505	83.464
506	83.465
507	83.474
508	83.468
509	83.477
510	83.48
511	83.486
512	83.494
513	83.487
514	83.485
515	83.487
516	83.487
517	83.479
518	83.468
519	83.464
520	83.479
521	83.491
522	83.492
523	83.496
524	83.504
525	83.512
526	83.515
527	83.523
528	83.53
529	83.529
530	83.526
531	83.523
532	83.536
533	83.525
534	83.527
535	83.552
536	83.534
537	83.518
538	83.528
539	83.532
540	83.53
541	83.536
542	83.544
543	83.549
544	83.538
545	83.544
546	83.555
547	83.551
548	83.557
549	83.558
550	83.559
551	83.552
552	83.558
553	83.567
554	83.56
555	83.574
556	83.574
557	83.572
558	83.579
559	83.584
560	83.583
561	83.566
562	83.562
563	83.563
564	83.555
565	83.553
566	83.559
567	83.557
568	83.568
569	83.578
570	83.564
571	83.562
572	83.567
573	83.572
574	83.588
575	83.59
576	83.583
577	83.594
578	83.594
579	83.58
580	83.578
581	83.563
582	83.563
583	83.554
584	83.537
585	83.555
586	83.544
587	83.53
588	83.528
589	83.514
590	83.515
591	83.487
592	83.49
593	83.509
594	83.487
595	83.479
596	83.48
597	83.468
598	83.45
599	83.46
600	83.453
601	83.437
602	83.438
603	83.449
604	83.453
605	83.447
606	83.439
607	83.436
608	83.429
609	83.429
610	83.428
611	83.415
612	83.408
613	83.393
614	83.386
615	83.38
616	83.363
617	83.354
618	83.344
619	83.342
620	83.33
621	83.315
622	83.301
623	83.281
624	83.261
625	83.27
626	83.252
627	83.252
628	83.272
629	83.268
630	83.265
631	83.253
632	83.256
633	83.258
634	83.258
635	83.248
636	83.232
637	83.233
638	83.224
639	83.199
640	83.174
641	83.165
642	83.158
643	83.148
644	83.141
645	83.137
646	83.136
647	83.138
648	83.146
649	83.144
650	83.129
651	83.12
652	83.112
653	83.114
654	83.109
655	83.109
656	83.096
657	83.076
658	83.091
659	83.073
660	83.068
661	83.069
662	83.04
663	83.034
664	83.032
665	83.02
666	83.049
667	83.056
668	83.041
669	83.042
670	83.03
671	83.03
672	83.023
673	83.011
674	83.01
675	82.993
676	82.955
677	82.952
678	82.939
679	82.932
680	82.94
681	82.918
682	82.909
683	82.913
684	82.904
685	82.894
686	82.888
687	82.886
688	82.884
689	82.876
690	82.881
691	82.886
692	82.872
693	82.875
694	82.885
695	82.862
696	82.875
697	82.872
698	82.846
699	82.846
700	82.831
701	82.827
702	82.823
703	82.817
704	82.797
705	82.782
706	82.779
707	82.756
708	82.742
709	82.737
710	82.734
711	82.741
712	82.735
713	82.738
714	82.75
715	82.724
716	82.709
717	82.708
718	82.688
719	82.681
720	82.685
721	82.673
722	82.67
723	82.658
724	82.64
725	82.637
726	82.631
727	82.629
728	82.626
729	82.627
730	82.624
731	82.614
732	82.614
733	82.613
734	82.6
735	82.59
736	82.575
737	82.566
738	82.556
739	82.543
740	82.523
741	82.509
742	82.512
743	82.513
744	82.514
745	82.507
746	82.475
747	82.464
748	82.461
749	82.446
750	82.454
751	82.441
752	82.439
753	82.459
754	82.456
755	82.443
756	82.44
757	82.445
758	82.438
759	82.446
760	82.457
761	82.434
762	82.437
763	82.437
764	82.424
765	82.433
766	82.434
767	82.424
768	82.419
769	82.403
770	82.392
771	82.402
772	82.399
773	82.397
774	82.421
775	82.415
776	82.423
777	82.443
778	82.439
779	82.432
780	82.405
781	82.412
782	82.419
783	82.415
784	82.439
785	82.443
786	82.434
787	82.444
788	82.441
789	82.432
790	82.433
791	82.414
792	82.412
793	82.42
794	82.416
795	82.432
796	82.431
797	82.41
798	82.42
799	82.42
800	82.417
801	82.437
802	82.442
803	82.455
804	82.479
805	82.494
806	82.506
807	82.514
808	82.505
809	82.498
810	82.493
811	82.515
812	82.533
813	82.541
814	82.552
815	82.536
816	82.541
817	82.549
818	82.546
819	82.541
820	82.532
821	82.538
822	82.54
823	82.539
824	82.549
825	82.548
826	82.533
827	82.53
828	82.549
829	82.536
830	82.523
831	82.551
832	82.563
833	82.555
834	82.572
835	82.571
836	82.573
837	82.588
838	82.589
839	82.576
840	82.576
841	82.58
842	82.584
843	82.601
844	82.571
845	82.584
846	82.6
847	82.592
848	82.591
849	82.574
850	82.573
851	82.576
852	82.568
853	82.572
854	82.545
855	82.518
856	82.469
857	82.409
858	82.331
859	82.198
860	82.057
861	81.989
862	81.884
863	81.822
864	81.802
865	81.803
866	81.818
867	81.87
868	81.919
869	81.965
870	82.017
871	82.05
872	82.061
873	82.081
874	82.109
875	82.122
876	82.127
877	82.14
878	82.17
879	82.175
880	82.18
881	82.219
882	82.234
883	82.237
884	82.252
885	82.277
886	82.279
887	82.289
888	82.3
889	82.294
890	82.286
891	82.279
892	82.265
893	82.25
894	82.254
895	82.256
896	82.275
897	82.294
898	82.295
899	82.308
900	82.33
901	82.322
902	82.326
903	82.329
904	82.321
905	82.33
906	82.342
907	82.35
908	82.358
909	82.356
910	82.35
911	82.347
912	82.339
913	82.342
914	82.361
915	82.375
916	82.369
917	82.381
918	82.402
919	82.383
920	82.377
921	82.392
922	82.37
923	82.359
924	82.359
925	82.341
926	82.343
927	82.347
928	82.349
929	82.36
930	82.362
931	82.367
932	82.378
933	82.354
934	82.342
935	82.338
936	82.33
937	82.318
938	82.308
939	82.309
940	82.306
941	82.291
942	82.282
943	82.292
944	82.284
945	82.288
946	82.295
947	82.288
948	82.294
949	82.287
950	82.292
951	82.297
952	82.283
953	82.276
954	82.266
955	82.264
956	82.27
957	82.254
958	82.256
959	82.275
960	82.271
961	82.287
962	82.296
963	82.295
964	82.293
965	82.282
966	82.286
967	82.276
968	82.267
969	82.265
970	82.256
971	82.269
972	82.293
973	82.319
974	82.338
975	82.327
976	82.324
977	82.334
978	82.324
979	82.33
980	82.349
981	82.353
982	82.351
983	82.377
984	82.415
985	82.401
986	82.416
987	82.418
988	82.404
989	82.4
990	82.388
991	82.383
992	82.392
993	82.416
994	82.432
995	82.448
996	82.46
997	82.456
998	82.477
999	82.499
1000	82.537
1001	82.559
1002	82.529
1003	82.515
1004	82.516
1005	82.505
1006	82.503
1007	82.512
1008	82.502
1009	82.487
1010	82.455
1011	82.439
1012	82.419
1013	82.411
1014	82.441
1015	82.46
1016	82.481
1017	82.503
1018	82.497
1019	82.506
1020	82.514
1021	82.544
1022	82.572
1023	82.604
1024	82.615
1025	82.597
1026	82.586
1027	82.542
1028	82.507
1029	82.489
1030	82.467
1031	82.449
1032	82.435
1033	82.433
1034	82.433
1035	82.433
1036	82.42
1037	82.428
1038	82.415
1039	82.407
1040	82.439
1041	82.42
1042	82.407
1043	82.437
1044	82.422
1045	82.414
1046	82.412
1047	82.378
1048	82.365
1049	82.347
1050	82.338
1051	82.337
1052	82.324
1053	82.308
1054	82.306
1055	82.322
1056	82.329
1057	82.339
1058	82.358
1059	82.365
1060	82.36
1061	82.345
1062	82.344
1063	82.368
1064	82.363
1065	82.361
1066	82.371
1067	82.394
1068	82.405
1069	82.392
1070	82.378
1071	82.365
1072	82.361
1073	82.349
1074	82.334
1075	82.319
1076	82.298
1077	82.304
1078	82.314
1079	82.323
1080	82.323
1081	82.313
1082	82.311
1083	82.283
1084	82.25
1085	82.231
1086	82.219
1087	82.209
1088	82.212
1089	82.22
1090	82.216
1091	82.224
1092	82.208
1093	82.201
1094	82.186
1095	82.163
1096	82.162
1097	82.154
1098	82.164
1099	82.18
1100	82.177
1101	82.174
1102	82.169
1103	82.129
1104	82.109
1105	82.064
1106	82.036
1107	82.027
1108	82.018
1109	82.036
1110	82.033
1111	82.021
1112	82.051
1113	82.038
1114	82.025
1115	82.036
1116	81.996
1117	81.994
1118	81.982
1119	81.94
1120	81.93
1121	81.912
1122	81.893
1123	81.868
1124	81.86
1125	81.843
1126	81.853
1127	81.865
1128	81.869
1129	81.894
1130	81.913
1131	81.95
1132	81.961
1133	81.987
1134	82.021
1135	82.016
1136	82.021
1137	82.05
1138	82.053
1139	82.063
1140	82.057
1141	82.019
1142	81.997
1143	81.979
1144	81.935
1145	81.879
1146	81.856
1147	81.859
1148	81.861
1149	81.874
1150	81.896
1151	81.9
1152	81.885
1153	81.887
1154	81.884
1155	81.88
1156	81.902
1157	81.864
1158	81.863
1159	81.88
1160	81.852
1161	81.868
1162	81.871
1163	81.857
1164	81.858
1165	81.825
1166	81.792
1167	81.793
1168	81.779
1169	81.779
1170	81.77
1171	81.74
1172	81.742
1173	81.767
1174	81.784
1175	81.795
1176	81.806
1177	81.828
1178	81.847
1179	81.864
1180	81.886
1181	81.921
1182	81.922
1183	81.933
1184	81.946
1185	81.95
1186	81.99
1187	82.002
1188	81.968
1189	81.948
1190	81.93
1191	81.93
1192	81.928
1193	81.903
1194	81.88
1195	81.846
1196	81.796
1197	81.77
1198	81.755
1199	81.738
1200	81.711
1201	81.702
1202	81.701
1203	81.686
1204	81.692
1205	81.704
1206	81.702
1207	81.711
1208	81.729
1209	81.731
1210	81.721
1211	81.694
1212	81.689
1213	81.682
1214	81.665
1215	81.662
1216	81.659
1217	81.668
1218	81.677
1219	81.658
1220	81.615
1221	81.604
1222	81.597
1223	81.62
1224	81.653
1225	81.67
1226	81.709
1227	81.743
1228	81.757
1229	81.787
1230	81.789
1231	81.8
1232	81.84
1233	81.875
1234	81.859
1235	81.851
1236	81.845
1237	81.833
1238	81.804
1239	81.797
1240	81.802
1241	81.761
1242	81.742
1243	81.738
1244	81.708
1245	81.72
1246	81.689
1247	81.652
1248	81.667
1249	81.652
1250	81.631
1251	81.62
1252	81.56
1253	81.539
1254	81.553
1255	81.548
1256	81.538
1257	81.537
1258	81.548
1259	81.565
1260	81.591
1261	81.595
1262	81.585
1263	81.572
1264	81.537
1265	81.525
1266	81.513
1267	81.495
1268	81.477
1269	81.473
1270	81.476
1271	81.503
1272	81.52
1273	81.513
1274	81.527
1275	81.535
1276	81.54
1277	81.555
1278	81.551
1279	81.553
1280	81.561
1281	81.556
1282	81.545
1283	81.533
1284	81.534
1285	81.555
1286	81.575
1287	81.569
1288	81.564
1289	81.59
1290	81.584
1291	81.576
1292	81.602
1293	81.609
1294	81.592
1295	81.609
1296	81.669
1297	81.677
1298	81.671
1299	81.696
1300	81.717
1301	81.744
1302	81.764
1303	81.741
1304	81.719
1305	81.702
1306	81.701
1307	81.679
1308	81.652
1309	81.641
1310	81.634
1311	81.647
1312	81.633
1313	81.64
1314	81.682
1315	81.693
1316	81.683
1317	81.686
1318	81.701
1319	81.696
1320	81.646
1321	81.601
1322	81.577
1323	81.547
1324	81.553
1325	81.563
1326	81.55
1327	81.543
1328	81.536
1329	81.502
1330	81.44
1331	81.424
1332	81.412
1333	81.38
1334	81.378
1335	81.369
1336	81.361
1337	81.369
1338	81.351
1339	81.341
1340	81.315
1341	81.298
1342	81.322
1343	81.327
1344	81.365
1345	81.385
1346	81.388
1347	81.367
1348	81.317
1349	81.326
1350	81.306
1351	81.308
1352	81.341
1353	81.377
1354	81.403
1355	81.422
1356	81.454
1357	81.492
1358	81.507
1359	81.558
1360	81.634
1361	81.632
1362	81.634
1363	81.64
1364	81.678
1365	81.705
1366	81.695
1367	81.679
1368	81.707
1369	81.687
1370	81.645
1371	81.636
1372	81.593
1373	81.604
1374	81.619
1375	81.627
1376	81.641
1377	81.638
1378	81.635
1379	81.617
1380	81.601
1381	81.59
1382	81.579
1383	81.544
1384	81.517
1385	81.525
1386	81.507
1387	81.46
1388	81.47
1389	81.478
1390	81.486
1391	81.478
1392	81.448
1393	81.448
1394	81.402
1395	81.386
1396	81.367
1397	81.37
1398	81.399
1399	81.406
1400	81.456
1401	81.483
1402	81.476
1403	81.489
1404	81.476
1405	81.441
1406	81.432
1407	81.398
1408	81.426
1409	81.448
1410	81.432
1411	81.445
1412	81.454
1413	81.475
1414	81.498
1415	81.514
1416	81.565
1417	81.619
1418	81.68
1419	81.756
1420	81.832
1421	81.849
1422	81.835
1423	81.834
1424	81.849
1425	81.838
1426	81.835
1427	81.857
1428	81.855
1429	81.873
1430	81.914
1431	81.941
1432	81.962
1433	81.982
1434	81.977
1435	81.934
1436	81.917
1437	81.908
1438	81.921
1439	81.946
1440	81.944
1441	81.961
1442	81.983
1443	81.989
1444	81.98
1445	81.965
1446	81.951
1447	81.925
1448	81.914
1449	81.944
1450	81.943
1451	81.926
1452	81.891
1453	81.843
1454	81.846
1455	81.84
1456	81.816
1457	81.829
1458	81.827
1459	81.814
1460	81.809
1461	81.846
1462	81.854
1463	81.833
1464	81.876
1465	81.854
1466	81.849
1467	81.872
1468	81.85
1469	81.85
1470	81.835
1471	81.848
1472	81.864
1473	81.87
1474	81.881
1475	81.871
1476	81.882
1477	81.881
1478	81.889
1479	81.889
1480	81.881
1481	81.874
1482	81.895
1483	81.919
1484	81.926
1485	81.978
1486	82.036
1487	82.112
1488	82.157
1489	82.2
1490	82.227
1491	82.231
1492	82.227
1493	82.211
1494	82.225
1495	82.236
1496	82.249
1497	82.27
1498	82.265
1499	82.276
1500	82.276
1501	82.245
1502	82.221
1503	82.229
1504	82.245
1505	82.232
1506	82.195
1507	82.172
1508	82.174
1509	82.162
1510	82.159
1511	82.151
1512	82.139
1513	82.154
1514	82.157
1515	82.167
1516	82.193
1517	82.215
1518	82.208
1519	82.2
1520	82.206
1521	82.178
1522	82.163
1523	82.155
1524	82.139
1525	82.155
1526	82.136
1527	82.106
1528	82.084
1529	82.066
1530	82.061
1531	82.068
1532	82.076
1533	82.086
1534	82.085
1535	82.056
1536	82.051
1537	82.062
1538	82.061
1539	82.093
1540	82.109
1541	82.108
1542	82.123
1543	82.147
1544	82.164
1545	82.172
1546	82.18
1547	82.194
1548	82.214
1549	82.2
1550	82.21
1551	82.223
1552	82.199
1553	82.18
1554	82.179
1555	82.19
1556	82.206
1557	82.184
1558	82.207
1559	82.245
1560	82.245
1561	82.254
1562	82.258
1563	82.256
1564	82.275
1565	82.252
1566	82.237
1567	82.201
1568	82.154
1569	82.136
1570	82.139
1571	82.141
1572	82.116
1573	82.088
1574	82.072
1575	82.061
1576	82.018
1577	82.003
1578	81.988
1579	81.99
1580	81.983
1581	81.976
1582	81.989
1583	82.024
1584	82.064
1585	82.063
1586	82.077
1587	82.087
1588	82.089
1589	82.109
1590	82.093
1591	82.094
1592	82.096
1593	82.108
1594	82.138
1595	82.133
1596	82.148
1597	82.184
1598	82.184
1599	82.192
1600	82.212
1601	82.229
1602	82.225
1603	82.224
1604	82.239
1605	82.246
1606	82.287
1607	82.312
1608	82.333
1609	82.355
1610	82.34
1611	82.345
1612	82.358
1613	82.358
1614	82.363
1615	82.368
1616	82.388
1617	82.375
1618	82.363
1619	82.375
1620	82.375
1621	82.401
1622	82.443
1623	82.509
1624	82.556
1625	82.58
1626	82.599
1627	82.575
1628	82.553
1629	82.551
1630	82.553
1631	82.549
1632	82.554
1633	82.556
1634	82.547
1635	82.549
1636	82.578
1637	82.594
1638	82.608
1639	82.604
1640	82.578
1641	82.551
1642	82.565
1643	82.588
1644	82.607
1645	82.626
1646	82.647
1647	82.682
1648	82.695
1649	82.69
1650	82.687
